# Wilkinson Microwave Anisotropy Probe (WMAP) 7-year data release.
# WMAP 7-Year Combined TE Power Spectrum, version 4.1 (June 2010)
#
# References: - WMAP Explanatory Supplement: http://lambda.gsfc.nasa.gov/
#             - Larson, et.al. (2010)
#
# Column 1 = multipole moment l
# Column 2 = TE power spectrum, units = uK^2, =  l(l+1)/2pi * C_l.
# Column 3 = 'Error' derived from diagonal terms of Fisher matrix, units = uK^2.
#             Included only as an estimate of their magnitude.  The
#             multipole moments are slightly coupled, so a correct
#             treatment of errors requires use of the entire Fisher matrix.
# Column 4 = portion of column3 error attributed to measurement errors,
#             sqrt[(Nl_tt * Cl_ee + Nl_ee * Cl_tt + N_tt * N_ee) / ((2l+1) fsky_te)],
#             in "2SN + NN" form, units = uK^2.
# Column 5 = portion of column3 error attributed to cosmic variance, 
#             sqrt[(Cl_ee * Cl_tt + Cl_te^2) / ((2l+1) fsky_te)],
#             assuming the best-fit LCDM model
#
           2         2.6332         5.9047         2.6298         5.2867
           3        -7.7188         6.1455         2.8632         5.4378
           4        -2.5280         5.6974         3.0343         4.8221
           5         2.4054         5.0446         3.1833         3.9135
           6         3.1435         4.4582         3.3247         2.9701
           7         1.4450         4.0752         3.4663         2.1429
           8        -0.4339         3.9155         3.6097         1.5170
           9         2.5949         3.9195         3.7547         1.1247
          10         5.3008         4.0110         3.9024         0.9271
          11        -0.8883         4.1358         4.0522         0.8274
          12        -3.1111         4.2702         4.2041         0.7484
          13        -2.7852         4.4110         4.3587         0.6777
          14         2.5671         4.5574         4.5149         0.6210
          15         5.9903         4.7045         4.6679         0.5861
          16         3.6922         4.8484         4.8139         0.5773
          17        -4.0265         4.9979         4.9638         0.5827
          18        -8.8215         5.1615         5.1277         0.5902
          19         8.3454         5.3305         5.2970         0.5965
          20         5.8434         5.4942         5.4612         0.6013
          21        -0.5162         5.6549         5.6218         0.6109
          22        -1.5268         5.8172         5.7830         0.6299
          23        -0.1981         5.9818         5.9456         0.6568
          24        -7.0950         6.1481         6.1093         0.6888
          25         7.0003         6.3150         6.2733         0.7243
          26         6.2765         6.4819         6.4369         0.7619
          27        -2.6917         6.6497         6.6013         0.8009
          28        -5.3911         6.8199         6.7678         0.8406
          29        18.4536         6.9912         6.9355         0.8806
          30         0.9526         7.1622         7.1028         0.9205
          31       -13.0271         7.3334         7.2703         0.9595
          32        -2.7864         7.5058         7.4392         0.9974
          33         6.5024         7.6792         7.6091         1.0352
          34         2.1006         7.8535         7.7797         1.0740
          35         2.0818         8.0288         7.9512         1.1137
          36         0.1918         8.2051         8.1235         1.1546
          37       -13.7525         8.3824         8.2966         1.1964
          38         9.6588         8.5615         8.4714         1.2388
          39         5.4360         8.7413         8.6468         1.2820
          40         4.4532         8.9226         8.8235         1.3259
          41         1.9864         9.1042         9.0004         1.3706
          42        13.2560         9.2870         9.1784         1.4161
          43       -10.6522         9.4710         9.3575         1.4623
          44        -1.0518         9.6563         9.5376         1.5093
          45       -10.3425         9.8424         9.7185         1.5569
          46         5.4428        10.0298         9.9005         1.6054
          47         1.4235        10.2186        10.0838         1.6546
          48        -8.0204        10.4086        10.2681         1.7045
          49       -12.6829        10.6002        10.4539         1.7551
          50         9.9279        10.7928        10.6406         1.8064
          51         1.3226        10.9866        10.8283         1.8582
          52       -28.1240        11.1822        11.0177         1.9108
          53         3.2349        11.3784        11.2076         1.9640
          54        -7.1799        11.5764        11.3991         2.0179
          55         6.9093        11.7757        11.5918         2.0726
          56        -3.0035        11.9766        11.7860         2.1283
          57        -1.6522        12.1793        11.9818         2.1847
          58        10.6748        12.3832        12.1785         2.2420
          59        10.9668        12.5884        12.3765         2.3000
          60        -6.5847        12.7956        12.5763         2.3588
          61         1.1551        13.0041        12.7773         2.4185
          62        -7.3988        13.2145        12.9799         2.4788
          63        16.0879        13.4265        13.1840         2.5400
          64        -3.0838        13.6399        13.3894         2.6018
          65        10.8856        13.8550        13.5964         2.6642
          66         1.3097        14.0717        13.8049         2.7271
          67       -11.7505        14.2905        14.0154         2.7908
          68        -1.9970        14.5106        14.2270         2.8549
          69        -0.2808        14.7324        14.4402         2.9196
          70       -11.0275        14.9559        14.6550         2.9848
          71       -29.7500        15.1812        14.8716         3.0506
          72       -10.7576        15.4081        15.0896         3.1169
          73       -23.3950        15.6367        15.3092         3.1838
          74        -0.6961        15.8673        15.5307         3.2511
          75        13.6495        16.0996        15.7538         3.3189
          76        -6.5033        16.3338        15.9787         3.3872
          77        10.8200        16.5692        16.2048         3.4558
          78       -19.7830        16.8067        16.4329         3.5247
          79         5.3424        17.0462        16.6630         3.5940
          80       -44.7379        17.2872        16.8946         3.6635
          81         2.4058        17.5299        17.1278         3.7331
          82       -18.8981        17.7747        17.3631         3.8029
          83        19.0863        18.0211        17.6000         3.8728
          84        -8.0371        18.2691        17.8386         3.9427
          85       -19.2853        18.5191        18.0791         4.0128
          86         9.0815        18.7711        18.3217         4.0829
          87       -30.2852        19.0248        18.5660         4.1529
          88       -30.0060        19.2805        18.8124         4.2229
          89       -37.2931        19.5379        19.0604         4.2929
          90       -18.3294        19.7968        19.3101         4.3626
          91       -34.4743        20.0579        19.5620         4.4322
          92       -32.5486        20.3206        19.8157         4.5016
          93        10.6071        20.5848        20.0710         4.5707
          94       -16.7973        20.8507        20.3280         4.6395
          95       -21.2233        21.1183        20.5869         4.7078
          96       -30.1967        21.3879        20.8479         4.7758
          97        -2.3267        21.6586        21.1102         4.8432
          98        29.9369        21.9315        21.3747         4.9103
          99       -23.5787        22.2054        21.6406         4.9766
         100       -15.6996        22.4816        21.9088         5.0424
         101       -48.9921        22.7588        22.1783         5.1075
         102       -60.1435        23.0381        22.4501         5.1719
         103       -20.3677        23.3186        22.7233         5.2356
         104       -27.6272        23.6008        22.9984         5.2984
         105        -6.7089        23.8845        23.2752         5.3604
         106       -22.1043        24.1695        23.5536         5.4215
         107       -48.8591        24.4565        23.8342         5.4817
         108       -47.6314        24.7447        24.1163         5.5408
         109        -6.0945        25.0340        24.3999         5.5990
         110        -9.0894        25.3255        24.6858         5.6561
         111        -1.3929        25.6178        24.9729         5.7120
         112         6.3215        25.9120        25.2621         5.7668
         113       -22.1001        26.2076        25.5530         5.8205
         114       -60.3021        26.5042        25.8454         5.8728
         115         8.8657        26.8021        26.1393         5.9239
         116       -17.4513        27.1017        26.4351         5.9737
         117      -116.0503        27.4025        26.7326         6.0221
         118       -76.5594        27.7041        27.0312         6.0691
         119       -82.3299        28.0074        27.3318         6.1148
         120       -73.2502        28.3119        27.6339         6.1589
         121       -50.9461        28.6173        27.9373         6.2014
         122       -48.6230        28.9239        28.2422         6.2426
         123       -44.8074        29.2317        28.5487         6.2821
         124       -45.0451        29.5404        28.8564         6.3199
         125       -49.2300        29.8504        29.1658         6.3563
         126       -10.6696        30.1613        29.4764         6.3908
         127        27.8613        30.4729        29.7882         6.4235
         128       -90.7253        30.7859        30.1017         6.4545
         129         7.4701        31.0999        30.4165         6.4836
         130       -41.0871        31.4144        30.7323         6.5111
         131       -60.9201        31.7304        31.0498         6.5364
         132       -15.9360        32.0461        31.3675         6.5599
         133       -56.1974        32.3637        31.6875         6.5815
         134       -33.6496        32.6816        32.0081         6.6010
         135       -42.3576        33.0006        32.3301         6.6187
         136       -96.9743        33.3202        32.6530         6.6345
         137      -107.7498        33.6404        32.9770         6.6482
         138       -70.0628        33.9611        33.3017         6.6599
         139         1.0346        34.2827        33.6276         6.6695
         140       -19.6258        34.6047        33.9544         6.6773
         141      -108.7756        34.9277        34.2824         6.6829
         142        -8.9777        35.2506        34.6107         6.6864
         143       -67.4154        35.5745        34.9402         6.6880
         144       -48.8459        35.8987        35.2703         6.6874
         145       -32.6675        36.2231        35.6010         6.6846
         146       -28.9052        36.5487        35.9331         6.6798
         147       -80.9374        36.8741        36.2653         6.6730
         148       -43.6133        37.1993        36.5976         6.6637
         149         7.7217        37.5256        36.9312         6.6527
         150       -37.0333        37.8520        37.2652         6.6391
         151       -53.7924        38.1790        37.6001         6.6236
         152        -9.8246        38.5056        37.9347         6.6058
         153       -20.5592        38.8323        38.2698         6.5858
         154       -22.2584        39.1601        38.6061         6.5638
         155       -11.7813        39.4875        38.9421         6.5400
         156       -52.3420        39.8155        39.2790         6.5139
         157        -1.5336        40.1430        39.6156         6.4859
         158       -36.5777        40.4711        39.9528         6.4560
         159       -49.9357        40.7990        40.2900         6.4242
         160       -62.2174        41.1279        40.6284         6.3907
         161      -122.5846        41.4564        40.9664         6.3554
         162        -4.5507        41.7853        41.3049         6.3182
         163      -102.8831        42.1138        41.6430         6.2793
         164       -96.9657        42.4429        41.9819         6.2389
         165       -96.0902        42.7715        42.3202         6.1967
         166       -74.7889        43.1006        42.6592         6.1530
         167       -79.4901        43.4297        42.9981         6.1078
         168      -125.1110        43.7588        43.3370         6.0611
         169      -130.1739        44.0885        43.6765         6.0130
         170       -23.3545        44.4171        44.0149         5.9636
         171       -12.3478        44.7464        44.3541         5.9128
         172       -13.3747        45.0752        44.6926         5.8608
         173       -60.0109        45.4048        45.0319         5.8076
         174       -63.6185        45.7338        45.3705         5.7533
         175        -2.7192        46.0626        45.7088         5.6980
         176       -47.5096        46.3913        46.0470         5.6416
         177       -42.9030        46.7197        46.3847         5.5845
         178      -107.3849        47.0484        46.7226         5.5266
         179        -4.6734        47.3766        47.0600         5.4681
         180       -60.0437        47.7044        47.3967         5.4092
         181        59.5175        48.0324        47.7335         5.3501
         182        -5.5771        48.3599        48.0696         5.2908
         183       -50.0851        48.6867        48.4049         5.2315
         184       -48.6792        49.0139        48.7402         5.1725
         185        15.9278        49.3405        49.0747         5.1138
         186        10.7154        49.6664        49.4084         5.0558
         187        -0.1345        49.9918        49.7413         4.9985
         188       -79.9599        50.3173        50.0740         4.9422
         189       -54.3825        50.6418        50.4055         4.8871
         190       -77.1688        50.9658        50.7361         4.8334
         191       -41.6971        51.2895        51.0662         4.7813
         192      -101.2619        51.6120        51.3947         4.7310
         193       -36.4780        51.9342        51.7226         4.6828
         194       -74.2617        52.2559        52.0497         4.6370
         195       -11.5717        52.5766        52.3756         4.5938
         196       -60.7474        52.8962        52.6998         4.5534
         197       -44.1611        53.2150        53.0230         4.5160
         198       -84.3270        53.5329        53.3450         4.4820
         199       -17.7284        53.8496        53.6653         4.4515
         200        88.3451        54.1659        53.9848         4.4250
         201        10.8454        54.4807        54.3025         4.4024
         202        50.3310        54.7946        54.6189         4.3841
         203         9.5648        55.1071        54.9335         4.3703
         204       -18.8507        55.4183        55.2464         4.3612
         205        81.3458        55.7287        55.5581         4.3571
         206       120.7712        56.0376        55.8679         4.3579
         207       -70.8740        56.3458        56.1765         4.3639
         208        37.6052        56.6523        56.4831         4.3752
         209        29.6144        56.9577        56.7881         4.3918
         210         4.3991        57.2618        57.0915         4.4138
         211        72.9029        57.5647        57.3931         4.4413
         212       -95.1441        57.8664        57.6932         4.4741
         213       -45.6028        58.1666        57.9913         4.5124
         214         5.3602        58.4654        58.2876         4.5560
         215       -10.6832        58.7626        58.5819         4.6048
         216       -27.4472        59.0586        58.8746         4.6588
         217       -36.8160        59.3529        59.1651         4.7179
         218       -24.7003        59.6460        59.4541         4.7818
         219       -44.6484        59.9373        59.7407         4.8505
         220      -151.1342        60.2273        60.0257         4.9237
         221        39.3836        60.5155        60.3085         5.0014
         222        82.5905        60.8023        60.5894         5.0833
         223        40.1291        61.0871        60.8680         5.1692
         224       -79.0784        61.3706        61.1449         5.2589
         225        43.7192        61.6517        61.4189         5.3523
         226       122.4416        61.9319        61.6917         5.4493
         227       -52.7487        62.2094        61.9614         5.5493
         228         0.7604        62.4855        62.2293         5.6526
         229       -24.7754        62.7593        62.4945         5.7585
         230        48.2526        63.0317        62.7581         5.8673
         231        90.2195        63.3019        63.0190         5.9786
         232        29.6750        63.5699        63.2773         6.0924
         233       146.8703        63.8355        63.5329         6.2081
         234       -13.4609        64.0994        63.7865         6.3259
         235        69.7692        64.3610        64.0375         6.4454
         236        55.2501        64.6202        64.2857         6.5667
         237       -83.6662        64.8779        64.5321         6.6896
         238        26.9944        65.1325        64.7751         6.8139
         239        81.7431        65.3845        65.0152         6.9394
         240        72.1490        65.6348        65.2533         7.0660
         241        -5.1030        65.8816        65.4877         7.1936
         242       -11.7040        66.1266        65.7200         7.3222
         243        14.2586        66.3691        65.9495         7.4514
         244        94.2026        66.6084        66.1756         7.5813
         245        77.3230        66.8454        66.3990         7.7116
         246        19.3690        67.0790        66.6190         7.8425
         247        60.8575        67.3107        66.8367         7.9736
         248        67.4902        67.5385        67.0504         8.1047
         249        62.8432        67.7639        67.2616         8.2362
         250        67.7256        67.9863        67.4694         8.3677
         251       -89.2615        68.2053        67.6737         8.4990
         252        67.9030        68.4217        67.8753         8.6301
         253        31.0516        68.6348        68.0734         8.7609
         254        46.1341        68.8444        68.2678         8.8911
         255        87.1943        69.0511        68.4593         9.0208
         256        53.6906        69.2549        68.6478         9.1498
         257        27.2877        69.4549        68.8324         9.2778
         258       104.0337        69.6518        69.0139         9.4049
         259        -4.3684        69.8463        69.1929         9.5311
         260       136.5021        70.0367        69.3679         9.6561
         261        87.7232        70.2245        69.5401         9.7799
         262         2.3504        70.4087        69.7089         9.9024
         263       145.0466        70.5897        69.8744        10.0235
         264       111.9899        70.7675        70.0368        10.1433
         265        -3.8064        70.9425        70.1964        10.2615
         266        85.9675        71.1137        70.3523        10.3781
         267         4.4993        71.2817        70.5052        10.4931
         268        37.2524        71.4466        70.6549        10.6064
         269        18.2807        71.6082        70.8015        10.7180
         270        64.4626        71.7670        70.9455        10.8279
         271        73.5353        71.9219        71.0856        10.9358
         272        56.9775        72.0739        71.2230        11.0420
         273       147.1016        72.2222        71.3569        11.1461
         274       159.3497        72.3678        71.4882        11.2483
         275        81.9057        72.5103        71.6167        11.3487
         276       131.3405        72.6489        71.7415        11.4466
         277       177.2849        72.7847        71.8636        11.5427
         278       132.1647        72.9169        71.9824        11.6369
         279        68.5495        73.0470        72.0993        11.7286
         280        27.4725        73.1731        72.2124        11.8183
         281       149.5719        73.2962        72.3228        11.9058
         282       124.9827        73.4156        72.4297        11.9911
         283       148.4181        73.5317        72.5336        12.0739
         284       143.6952        73.6453        72.6354        12.1546
         285        79.8355        73.7553        72.7338        12.2331
         286       -30.1543        73.8628        72.8299        12.3093
         287        43.0395        73.9671        72.9232        12.3831
         288        61.3153        74.0680        73.0134        12.4544
         289       214.6301        74.1653        73.1003        12.5234
         290        11.5472        74.2604        73.1853        12.5902
         291        70.4885        74.3528        73.2680        12.6543
         292        57.9044        74.4414        73.3472        12.7163
         293       148.2324        74.5270        73.4238        12.7756
         294       215.7525        74.6107        73.4988        12.8327
         295       123.2588        74.6909        73.5707        12.8872
         296        13.7887        74.7677        73.6395        12.9392
         297        79.7125        74.8416        73.7059        12.9885
         298        -8.7406        74.9140        73.7712        13.0356
         299       125.0293        74.9829        73.8332        13.0802
         300       161.0129        75.0493        73.8932        13.1222
         301        -1.0120        75.1124        73.9503        13.1618
         302        19.6524        75.1731        74.0053        13.1988
         303       121.7265        75.2310        74.0580        13.2335
         304       201.3950        75.2877        74.1098        13.2657
         305        33.6994        75.3411        74.1587        13.2950
         306       -40.7158        75.3914        74.2050        13.3222
         307        74.8130        75.4402        74.2502        13.3467
         308       167.2991        75.4870        74.2938        13.3688
         309        78.2402        75.5291        74.3330        13.3884
         310       283.7816        75.5714        74.3729        13.4053
         311       199.1353        75.6101        74.4096        13.4200
         312       106.5777        75.6469        74.4448        13.4323
         313        62.0645        75.6833        74.4800        13.4422
         314       110.1751        75.7160        74.5119        13.4494
         315        75.0965        75.7470        74.5426        13.4542
         316       190.0705        75.7761        74.5716        13.4572
         317       214.2865        75.8043        74.6003        13.4571
         318       154.2700        75.8311        74.6278        13.4552
         319        79.3400        75.8547        74.6526        13.4505
         320        52.4741        75.8767        74.6761        13.4443
         321        14.8837        75.8986        74.7000        13.4354
         322        92.4800        75.9197        74.7234        13.4242
         323        11.2446        75.9385        74.7450        13.4109
         324       101.3568        75.9567        74.7662        13.3954
         325       218.3512        75.9719        74.7848        13.3780
         326       194.0097        75.9877        74.8043        13.3582
         327       167.1864        76.0037        74.8244        13.3365
         328       282.3125        76.0171        74.8422        13.3129
         329       328.2203        76.0317        74.8617        13.2872
         330         8.6124        76.0443        74.8794        13.2596
         331        91.9568        76.0568        74.8973        13.2302
         332       228.9893        76.0698        74.9160        13.1987
         333       122.7100        76.0824        74.9347        13.1654
         334        78.4835        76.0950        74.9536        13.1307
         335        39.3723        76.1090        74.9742        13.0937
         336       211.9575        76.1215        74.9937        13.0551
         337        86.7254        76.1361        75.0154        13.0153
         338         0.2775        76.1511        75.0377        12.9741
         339       140.2305        76.1666        75.0609        12.9306
         340       157.2331        76.1823        75.0845        12.8861
         341       107.5047        76.2007        75.1111        12.8400
         342       133.5798        76.2198        75.1385        12.7927
         343        14.9066        76.2402        75.1675        12.7440
         344        34.3780        76.2636        75.1997        12.6941
         345        48.3913        76.2884        75.2335        12.6432
         346       159.7950        76.3151        75.2693        12.5908
         347       143.5735        76.3444        75.3079        12.5374
         348        54.0314        76.3766        75.3495        12.4831
         349       189.9305        76.4104        75.3930        12.4274
         350       -62.3406        76.4480        75.4403        12.3713
         351       160.7390        76.4902        75.4925        12.3141
         352        58.3931        76.5337        75.5459        12.2564
         353        -0.1285        76.5814        75.6037        12.1978
         354       133.5441        76.6328        75.6653        12.1385
         355       136.2852        76.6876        75.7304        12.0788
         356       123.4597        76.7460        75.7991        12.0184
         357       241.8563        76.8090        75.8724        11.9579
         358       216.9446        76.8763        75.9502        11.8969
         359        16.4932        76.9487        76.0330        11.8358
         360       163.4672        77.0243        76.1191        11.7744
         361        55.9910        77.1042        76.2094        11.7126
         362        40.5930        77.1879        76.3036        11.6508
         363        20.4989        77.2793        76.4053        11.5893
         364        62.9977        77.3729        76.5093        11.5275
         365        74.5401        77.4736        76.6205        11.4658
         366       162.6935        77.5781        76.7353        11.4043
         367        86.4966        77.6889        76.8564        11.3432
         368       -36.5234        77.8050        76.9826        11.2824
         369        13.1803        77.9270        77.1148        11.2217
         370       -55.8144        78.0535        77.2514        11.1614
         371        95.7902        78.1864        77.3942        11.1017
         372       -48.0128        78.3265        77.5442        11.0427
         373        82.6553        78.4715        77.6990        10.9841
         374        12.1783        78.6233        77.8604        10.9261
         375        81.6198        78.7819        78.0286        10.8687
         376       119.1956        78.9466        78.2027        10.8122
         377       204.6007        79.1184        78.3838        10.7561
         378       250.9402        79.2978        78.5724        10.7012
         379       -48.5521        79.4838        78.7675        10.6473
         380       193.2041        79.6769        78.9694        10.5940
         381       -19.4098        79.8770        79.1783        10.5416
         382      -110.2383        80.0854        79.3953        10.4906
         383         7.7526        80.2997        79.6182        10.4401
         384        38.0247        80.5228        79.8495        10.3909
         385        15.7207        80.7551        80.0899        10.3431
         386       -35.1503        80.9928        80.3357        10.2959
         387        40.6350        81.2403        80.5911        10.2502
         388       -61.0408        81.4957        80.8542        10.2053
         389      -151.3112        81.7602        81.1263        10.1620
         390      -201.8471        82.0331        81.4065        10.1199
         391       -26.0222        82.3142        81.6948        10.0787
         392       122.9639        82.6044        81.9921        10.0391
         393        82.4820        82.9035        82.2981        10.0008
         394        -2.6881        83.2110        82.6124         9.9634
         395        24.8676        83.5294        82.9374         9.9275
         396        79.6148        83.8557        83.2701         9.8928
         397       -70.4968        84.1911        83.6118         9.8593
         398        97.9129        84.5369        83.9637         9.8271
         399       -29.3509        84.8931        84.3259         9.7964
         400       112.6219        85.2591        84.6978         9.7669
         401        10.8563        85.6336        85.0781         9.7384
         402       -44.7113        86.0196        85.4697         9.7114
         403       -43.5421        86.4147        85.8702         9.6855
         404       -52.2413        86.8191        86.2799         9.6608
         405       -17.0714        87.2350        86.7010         9.6373
         406      -185.5611        87.6586        87.1297         9.6147
         407       -27.7380        88.0937        87.5698         9.5934
         408        93.4009        88.5387        88.0196         9.5731
         409        98.8899        88.9936        88.4792         9.5541
         410        84.5598        89.4568        88.9472         9.5357
         411       -73.2917        89.9310        89.4258         9.5187
         412         6.9525        90.4143        89.9136         9.5021
         413        28.5703        90.9073        90.4109         9.4866
         414       -48.1950        91.4095        90.9175         9.4720
         415      -103.3391        91.9211        91.4332         9.4582
         416       -36.9359        92.4434        91.9596         9.4451
         417       -41.5790        92.9744        92.4947         9.4327
         418      -106.8879        93.5143        93.0385         9.4208
         419       -86.9782        94.0646        93.5928         9.4097
         420       -55.7221        94.6217        94.1537         9.3989
         421         2.2529        95.1899        94.7257         9.3888
         422        15.8016        95.7676        95.3072         9.3793
         423      -159.1820        96.3540        95.8973         9.3699
         424      -141.0614        96.9487        96.4958         9.3608
         425      -129.3883        97.5532        97.1038         9.3523
         426       -10.9456        98.1658        97.7201         9.3438
         427      -182.3860        98.7881        98.3460         9.3355
         428        57.0197        99.4177        98.9792         9.3271
         429       -23.2041       100.0563        99.6214         9.3190
         430      -128.2438       100.7039       100.2725         9.3108
         431      -230.0777       101.3593       100.9315         9.3025
         432        27.8899       102.0248       101.6006         9.2944
         433      -216.1851       102.6972       102.2766         9.2858
         434      -160.5698       103.3788       102.9617         9.2774
         435       -61.8941       104.0667       103.6532         9.2681
         436      -116.8034       104.7645       104.3545         9.2590
         437      -167.6933       105.4695       105.0632         9.2493
         438      -198.7380       106.1822       105.7795         9.2391
         439       -29.4089       106.9048       106.5058         9.2288
         440      -280.7327       107.6338       107.2384         9.2177
         441       175.7200       108.3706       107.9788         9.2060
         442      -216.5913       109.1145       108.7265         9.1936
         443      -142.6720       109.8656       109.4814         9.1805
         444       -34.8248       110.6260       110.2455         9.1670
         445        13.3427       111.3915       111.0149         9.1524
         446        81.1754       112.1658       111.7930         9.1372
         447      -283.6739       112.9476       112.5787         9.1210
         448        72.9291       113.7347       113.3698         9.1040
         449       -30.2179       114.5309       114.1700         9.0859
         450      -259.9359       115.3337       114.9767         9.0672
         451       125.8847       116.1441       115.7912         9.0472
         452       -20.6063       116.9593       116.6105         9.0260
         453      -226.7289       117.7834       117.4387         9.0041
         454      -197.8633       118.6135       118.2731         8.9809
         455      -203.5026       119.4498       119.1136         8.9569
         456      -210.1570       120.2922       119.9601         8.9314
         457      -346.0459       121.1427       120.8149         8.9053
         458        15.2937       121.9981       121.6747         8.8777
         459      -168.3844       122.8603       122.5412         8.8492
         460        15.4292       123.7289       123.4142         8.8196
         461      -111.8161       124.6052       124.2948         8.7891
         462       -70.4211       125.4860       125.1800         8.7575
         463        33.9826       126.3727       126.0712         8.7246
         464       150.0568       127.2658       126.9688         8.6908
         465      -124.5433       128.1642       127.8716         8.6558
         466      -264.3800       129.0697       128.7815         8.6200
         467      -192.4512       129.9791       129.6955         8.5831
         468       -79.4410       130.8957       130.6165         8.5450
         469      -155.2196       131.8172       131.5424         8.5060
         470       103.7845       132.7438       132.4735         8.4662
         471        -5.2818       133.6769       133.4111         8.4252
         472       -33.5945       134.6157       134.3544         8.3834
         473        63.9348       135.5593       135.3024         8.3408
         474       -43.6581       136.5064       136.2540         8.2969
         475        94.8219       137.4600       137.2120         8.2524
         476      -115.7764       138.4190       138.1755         8.2070
         477        68.0269       139.3821       139.1429         8.1607
         478       -51.3805       140.3498       140.1151         8.1136
         479      -193.9316       141.3245       141.0941         8.0659
         480      -524.1057       142.3012       142.0752         8.0175
         481       104.1018       143.2837       143.0619         7.9682
         482      -174.2467       144.2706       144.0531         7.9183
         483        49.3323       145.2627       145.0495         7.8677
         484        83.2399       146.2577       146.0487         7.8166
         485      -201.2999       147.2585       147.0536         7.7651
         486      -194.3468       148.2636       148.0629         7.7130
         487       270.3847       149.2708       149.0741         7.6603
         488       -47.0498       150.2828       150.0901         7.6071
         489       -80.2272       151.3011       151.1124         7.5540
         490       -72.4517       152.3193       152.1345         7.5002
         491        -2.8334       153.3447       153.1638         7.4464
         492        57.5575       154.3714       154.1943         7.3923
         493      -221.4946       155.4036       155.2302         7.3380
         494       104.5310       156.4385       156.2688         7.2837
         495        22.2701       157.4748       157.3088         7.2293
         496        -7.2828       158.5166       158.3542         7.1751
         497      -261.4241       159.5610       159.4021         7.1210
         498       -93.0438       160.6077       160.4522         7.0670
         499      -247.6716       161.6585       161.5063         7.0134
         500       224.3789       162.7113       162.5624         6.9599
         501         0.2461       168.5804       168.4176         7.4070
         502       120.1542       169.6448       169.4855         7.3507
         503      -186.4880       170.7125       170.5566         7.2951
         504      -404.1096       171.7831       171.6305         7.2402
         505        20.5425       172.8550       172.7056         7.1859
         506      -106.8952       173.9290       173.7827         7.1326
         507      -182.1163       175.0066       174.8634         7.0802
         508       -47.3733       176.0858       175.9455         7.0288
         509      -117.2121       177.1657       177.0282         6.9785
         510       -35.5685       178.2490       178.1143         6.9293
         511       -49.5795       179.3335       179.2014         6.8814
         512      -152.6884       180.4210       180.2915         6.8348
         513        86.1379       181.5110       181.3840         6.7896
         514      -316.8627       182.6025       182.4779         6.7460
         515      -266.8271       183.6969       183.5746         6.7039
         516       257.7468       184.7907       184.6705         6.6634
         517        17.6600       185.8893       185.7712         6.6248
         518         7.9232       186.9880       186.8719         6.5878
         519      -288.1315       188.0910       187.9769         6.5529
         520       138.5850       189.1947       189.0823         6.5198
         521        -2.7630       190.3008       190.1901         6.4887
         522       129.9899       191.4080       191.2989         6.4598
         523       -18.4618       192.5190       192.4115         6.4330
         524       -45.0301       193.6290       193.5229         6.4083
         525      -141.1738       194.7431       194.6383         6.3860
         526      -263.9749       195.8587       195.7552         6.3660
         527      -250.5570       196.9762       196.8739         6.3483
         528       393.4318       198.0952       197.9939         6.3330
         529       136.1907       199.2175       199.1172         6.3202
         530      -184.5851       200.3418       200.2424         6.3099
         531       240.9881       201.4695       201.3710         6.3021
         532      -255.8238       202.5960       202.4981         6.2968
         533         1.8415       203.7255       203.6282         6.2939
         534       100.0089       204.8572       204.7605         6.2937
         535      -213.6112       205.9913       205.8950         6.2960
         536       -93.8799       207.1261       207.0302         6.3008
         537       393.6355       208.2650       208.1695         6.3082
         538       -24.3453       209.4024       209.3071         6.3181
         539       156.2533       210.5456       210.4505         6.3305
         540      -120.6782       211.6881       211.5929         6.3453
         541      -313.2131       212.8301       212.7350         6.3626
         542      -260.7598       213.9809       213.8857         6.3824
         543       119.0404       215.1280       215.0326         6.4044
         544      -183.9208       216.2801       216.1846         6.4289
         545       108.0358       217.4336       217.3378         6.4555
         546      -179.8829       218.5878       218.4916         6.4844
         547      -420.9314       219.7430       219.6464         6.5156
         548      -129.7739       220.9032       220.8062         6.5487
         549       343.9736       222.0661       221.9685         6.5839
         550       111.7511       223.2268       223.1286         6.6212
         551       245.4345       224.3914       224.2925         6.6603
         552      -211.7839       225.5611       225.4615         6.7012
         553      -242.9506       226.7288       226.6285         6.7438
         554       -44.7849       227.9018       227.8007         6.7880
         555       -21.8921       229.0749       228.9729         6.8336
         556        78.7070       230.2496       230.1468         6.8806
         557       -40.8581       231.4353       231.3316         6.9290
         558       129.2739       232.6168       232.5121         6.9784
         559       119.9166       233.8038       233.6981         7.0289
         560        10.4134       234.9888       234.8821         7.0803
         561       330.4171       236.1859       236.0781         7.1327
         562       -29.7195       237.3801       237.2714         7.1856
         563      -391.6236       238.5822       238.4723         7.2395
         564      -269.2423       239.7830       239.6720         7.2941
         565       458.4892       240.9929       240.8808         7.3490
         566      -226.0804       242.2047       242.0915         7.4044
         567      -128.6579       243.4184       243.3040         7.4599
         568       468.5848       244.6451       244.5296         7.5159
         569      -120.3965       245.8672       245.7506         7.5722
         570       236.7466       247.1018       246.9840         7.6285
         571      -307.2994       248.3383       248.2193         7.6849
         572       -68.0921       249.5801       249.4600         7.7414
         573      -288.5438       250.8267       250.7054         7.7979
         574      -402.3786       252.0795       251.9571         7.8543
         575        98.8121       253.3366       253.2131         7.9105
         576       496.8596       254.6008       254.4761         7.9667
         577      -279.4487       255.8738       255.7480         8.0223
         578      -105.3137       257.1513       257.0244         8.0780
         579       169.5654       258.4377       258.3097         8.1332
         580      -287.4129       259.7227       259.5936         8.1878
         581       -76.6758       261.0264       260.8962         8.2424
         582        92.2442       262.3265       262.1953         8.2964
         583       109.0908       263.6418       263.5095         8.3496
         584       149.9596       264.9578       264.8246         8.4026
         585       -96.9460       266.2909       266.1566         8.4552
         586        51.3113       267.6210       267.4858         8.5070
         587         6.3669       268.9619       268.8258         8.5580
         588      -133.3983       270.3174       270.1802         8.6088
         589      -134.9067       271.6774       271.5393         8.6589
         590       -87.4996       273.0485       272.9096         8.7082
         591       408.0233       274.4230       274.2833         8.7567
         592       310.1560       275.8125       275.6719         8.8047
         593       -21.7301       277.2051       277.0637         8.8516
         594      -157.9825       278.6139       278.4718         8.8981
         595       156.0897       280.0306       279.8877         8.9440
         596       319.5999       281.4546       281.3110         8.9890
         597        39.9667       282.8877       282.7435         9.0330
         598      -102.6729       284.3325       284.1876         9.0765
         599       197.5234       285.7913       285.6458         9.1190
         600       166.3599       287.2566       287.1105         9.1606
         601      -109.8633       288.7336       288.5869         9.2016
         602       124.5005       290.2268       290.0797         9.2420
         603       441.5045       291.7291       291.5815         9.2815
         604       263.8469       293.2384       293.0902         9.3199
         605       141.5037       294.7649       294.6163         9.3578
         606       343.9267       296.3005       296.1516         9.3948
         607       -20.2525       297.8472       297.6979         9.4306
         608        52.8478       299.4039       299.2543         9.4659
         609        56.4540       300.9774       300.8274         9.5004
         610       -19.9752       302.5640       302.4138         9.5340
         611      -183.7470       304.1651       304.0146         9.5669
         612       -63.1401       305.7781       305.6274         9.5989
         613       127.3686       307.4009       307.2500         9.6301
         614       292.0992       309.0425       308.8915         9.6606
         615       556.4233       310.6956       310.5444         9.6904
         616      -607.4238       312.3587       312.2074         9.7193
         617       258.3647       314.0418       313.8904         9.7473
         618      -177.7331       315.7371       315.5858         9.7748
         619      -279.8679       317.4469       317.2955         9.8012
         620       104.2639       319.1755       319.0242         9.8274
         621      -461.4270       320.9131       320.7618         9.8525
         622       170.6749       322.6688       322.5176         9.8768
         623      -339.7035       324.4426       324.2915         9.9008
         624       220.3015       326.2315       326.0805         9.9241
         625       390.8125       328.0358       327.8850         9.9465
         626       -20.1627       329.8530       329.7023         9.9686
         627       374.8561       331.6867       331.5362         9.9897
         628       170.4235       333.5449       333.3946        10.0105
         629        91.4555       335.4103       335.2603        10.0307
         630      -675.5308       337.3018       337.1520        10.0504
         631      -390.7090       339.2051       339.0556        10.0695
         632      -430.5054       341.1260       340.9768        10.0880
         633       291.3831       343.0674       342.9185        10.1062
         634      -509.3326       345.0277       344.8791        10.1239
         635      -287.4164       347.0053       346.8571        10.1411
         636      -737.2465       349.0055       348.8577        10.1582
         637       149.4749       351.0149       350.8674        10.1747
         638       468.9701       353.0523       352.9052        10.1908
         639       193.0493       355.1068       354.9601        10.2066
         640      -302.5036       357.1770       357.0307        10.2220
         641      -281.5870       359.2686       359.1228        10.2373
         642      -407.3808       361.3831       361.2377        10.2522
         643        49.9947       363.5203       363.3753        10.2672
         644       487.4250       365.6768       365.5322        10.2817
         645      -157.2470       367.8550       367.7108        10.2961
         646       290.0007       370.0554       369.9117        10.3103
         647       976.9878       372.2702       372.1270        10.3244
         648       377.7070       374.5085       374.3658        10.3385
         649      -130.9668       376.7761       376.6339        10.3525
         650       -79.9441       379.0559       378.9142        10.3662
         651      -866.6843       381.3769       381.2356        10.3802
         652      -275.6638       383.6966       383.5558        10.3939
         653       626.6553       386.0530       385.9126        10.4077
         654       -35.8926       388.4337       388.2939        10.4216
         655      -432.8929       390.8343       390.6950        10.4355
         656       172.4448       393.2546       393.1158        10.4496
         657       726.9235       395.7056       395.5672        10.4637
         658      -407.5117       398.1775       398.0396        10.4780
         659       165.2564       400.6746       400.5372        10.4921
         660      -146.5269       403.1894       403.0524        10.5067
         661      -258.9024       405.7303       405.5939        10.5212
         662        49.4541       408.2990       408.1630        10.5359
         663      -153.7794       410.8927       410.7572        10.5508
         664      -607.4261       413.5103       413.3753        10.5659
         665       510.8828       416.1524       416.0179        10.5811
         666      -708.4891       418.8153       418.6812        10.5966
         667      -775.3112       421.5049       421.3712        10.6119
         668      -103.9069       424.2222       424.0891        10.6276
         669      -377.7201       426.9612       426.8285        10.6436
         670      -180.6945       429.7334       429.6012        10.6596
         671      -275.7291       432.5177       432.3859        10.6756
         672      -419.5348       435.3379       435.2066        10.6921
         673       638.7449       438.1839       438.0530        10.7084
         674      -174.2106       441.0491       440.9187        10.7252
         675       -36.9922       443.9417       443.8117        10.7419
         676       -92.4502       446.8668       446.7372        10.7588
         677      -630.6075       449.8085       449.6795        10.7756
         678        97.4879       452.7824       452.6538        10.7929
         679      -633.3801       455.7793       455.6511        10.8098
         680      -983.3068       458.8058       458.6780        10.8272
         681       -12.1252       461.8556       461.7283        10.8444
         682       680.8042       464.9282       464.8013        10.8616
         683      -887.3544       468.0398       467.9133        10.8791
         684       389.6024       471.1674       471.0414        10.8964
         685       124.3462       474.3354       474.2098        10.9137
         686       445.9060       477.5141       477.3890        10.9310
         687       403.0701       480.7271       480.6024        10.9482
         688     -1076.9700       483.9586       483.8343        10.9653
         689      -610.9000       487.2269       487.1031        10.9824
         690      -693.4409       490.5235       490.4002        10.9994
         691       383.3241       493.8450       493.7221        11.0164
         692       801.8240       497.1940       497.0716        11.0330
         693       205.3862       500.5690       500.4470        11.0494
         694      -442.5702       503.9738       503.8523        11.0657
         695      -143.2799       507.4033       507.2823        11.0816
         696      -988.6005       510.8610       510.7405        11.0972
         697       682.1968       514.3496       514.2296        11.1126
         698       -14.8485       517.8644       517.7448        11.1277
         699      -869.7992       521.4084       521.2893        11.1426
         700       663.5033       524.9770       524.8584        11.1569
         701      -261.9994       528.5807       528.4627        11.1708
         702      -129.2380       532.2097       532.0922        11.1845
         703       371.2719       535.8648       535.7478        11.1974
         704       416.8678       539.5468       539.4304        11.2100
         705         8.3470       543.2610       543.1451        11.2223
         706        28.6654       546.9999       546.8845        11.2337
         707       343.9236       550.7710       550.6562        11.2448
         708       582.7495       554.5663       554.4521        11.2554
         709      -416.8203       558.3880       558.2743        11.2650
         710     -1042.6150       562.2352       562.1221        11.2745
         711       927.1700       566.1221       566.0096        11.2834
         712       -65.7474       570.0267       569.9148        11.2916
         713       501.2420       573.9652       573.8540        11.2990
         714        13.3601       577.9331       577.8225        11.3057
         715       535.7750       581.9214       581.8114        11.3118
         716      1080.2120       585.9429       585.8336        11.3172
         717      -640.8658       589.9893       589.8806        11.3220
         718       282.3184       594.0721       593.9641        11.3258
         719      -458.8488       598.1777       598.0704        11.3289
         720      1154.3850       602.3062       602.1996        11.3313
         721      -597.2484       606.4665       606.3606        11.3328
         722      -917.8444       610.6541       610.5489        11.3336
         723      1332.4910       614.8691       614.7647        11.3335
         724      -577.0516       619.1145       619.0108        11.3326
         725      1088.0690       623.3852       623.2822        11.3306
         726       257.3055       627.6869       627.5846        11.3278
         727       104.6503       632.0134       631.9119        11.3240
         728       236.2337       636.3739       636.2732        11.3194
         729     -1188.1540       640.7577       640.6579        11.3135
         730       250.0042       645.1620       645.0629        11.3070
         731       322.3156       649.6124       649.5142        11.2993
         732      -196.8615       654.0732       653.9758        11.2905
         733      -752.0933       658.5768       658.4802        11.2809
         734      -377.7290       663.0979       663.0021        11.2700
         735      -822.9539       667.6576       667.5626        11.2582
         736      -216.1181       672.2367       672.1426        11.2451
         737      -768.9523       676.8503       676.7571        11.2309
         738        50.6934       681.4883       681.3960        11.2157
         739     -1144.5500       686.1565       686.0651        11.1992
         740     -1038.7620       690.8626       690.7721        11.1817
         741       -33.4879       695.5772       695.4876        11.1629
         742       551.5312       700.3341       700.2454        11.1430
         743     -1001.1560       705.1262       705.0385        11.1217
         744       954.4060       709.9355       709.8487        11.0993
         745        62.7742       714.7740       714.6882        11.0759
         746     -1137.2750       719.6526       719.5677        11.0508
         747      -124.2275       724.5597       724.4759        11.0246
         748      1422.1520       729.4865       729.4036        10.9972
         749      1005.1620       734.4462       734.3643        10.9682
         750        90.7610       739.4363       739.3554        10.9381
         751      -131.4255       744.4582       744.3783        10.9069
         752      -167.5331       749.5032       749.4243        10.8740
         753        41.5202       754.5854       754.5076        10.8401
         754       547.8274       759.6960       759.6192        10.8049
         755      -755.3452       764.8485       764.7727        10.7683
         756      -712.0455       770.0222       769.9474        10.7308
         757     -1370.1880       775.2178       775.1440        10.6917
         758        55.6534       780.4680       780.3953        10.6514
         759      -680.3033       785.7210       785.6493        10.6100
         760      -697.2845       791.0307       790.9601        10.5673
         761       -48.5859       796.3598       796.2903        10.5236
         762      1414.7720       801.7172       801.6488        10.4789
         763       114.5471       807.1114       807.0439        10.4328
         764      -918.1211       812.5429       812.4765        10.3856
         765     -1410.9360       818.0094       817.9441        10.3375
         766        -0.9455       823.4983       823.4340        10.2881
         767       -88.2619       829.0192       828.9560        10.2378
         768      -271.1303       834.5743       834.5121        10.1867
         769      -635.1044       840.1662       840.1051        10.1342
         770      -309.4981       845.7966       845.7365        10.0811
         771      -777.4280       851.4612       851.4022        10.0269
         772      1353.8970       857.1465       857.0885         9.9718
         773      -590.2850       862.8775       862.8206         9.9160
         774     -1639.6170       868.6391       868.5832         9.8593
         775       -37.2186       874.4331       874.3782         9.8017
         776      1224.0360       880.2704       880.2165         9.7433
         777      -558.3271       886.1322       886.0793         9.6845
         778      -715.5313       892.0337       891.9817         9.6248
         779       534.6546       897.9645       897.9136         9.5643
         780       291.2428       903.9369       903.8870         9.5032
         781     -1204.2230       909.9456       909.8966         9.4415
         782       -61.3675       915.9907       915.9426         9.3794
         783      -713.7207       922.0661       922.0190         9.3166
         784       225.5703       928.1898       928.1437         9.2534
         785       282.2108       934.3360       934.2908         9.1895
         786      -964.9417       940.5222       940.4779         9.1256
         787       434.4323       946.7543       946.7110         9.0611
         788      -775.6482       953.0149       952.9724         8.9962
         789       813.1462       959.3198       959.2782         8.9313
         790       -24.1187       965.6455       965.6048         8.8659
         791      1652.6020       972.0252       971.9853         8.8004
         792       161.2619       978.4324       978.3934         8.7347
         793       605.6191       984.8853       984.8472         8.6691
         794      -122.6886       991.3712       991.3338         8.6031
         795     -1404.6120       997.9036       997.8670         8.5372
         796     -2521.2240      1004.4612      1004.4255         8.4716
         797      -285.1786      1011.0593      1011.0243         8.4057
         798      -727.2431      1017.7018      1017.6677         8.3402
         799      -348.7881      1024.3795      1024.3461         8.2750
         800       403.9508      1031.0919      1031.0592         8.2098
