# Wilkinson Microwave Anisotropy Probe (WMAP) 7-year data release.
# WMAP 7-Year Combined TT Power Spectrum, version 4.1 (June 2010)
#
# References: - WMAP Explanatory Supplement: http://lambda.gsfc.nasa.gov/
#             - Larson, et.al. (2010)
#
# Column 1 = multipole moment l
# Column 2 = TT power spectrum, units = uK^2, = l(l+1)/2pi * C_l.
#             This uses the maximum likelihood of the marginalized distribution 
#             at that l, for l up to and including 32.  
#             For l > 32, the Master estimate is used.
# Column 3 = 'Error' derived from diagonal terms of Fisher matrix, units = uK^2.
#             Included only as an estimate of their magnitude.  The
#             multipole moments are slightly coupled, so a correct
#             treatment of errors requires use of the entire Fisher matrix.
# Column 4 = portion of column3 error attributed to measurement errors,
#             in "2SN + NN" form, units = uK^2.
# Column 5 = portion of column3 error attributed to cosmic variance, 
#             assuming the best-fit LCDM model
#
           2       200.8669       929.0538         4.8079       929.0413
           3      1050.6551       730.8405         5.1676       730.8223
           4       694.2891       600.6441         5.4431       600.6195
           5      1516.6019       512.8237         5.6891       512.7921
           6       668.6091       451.3475         5.9263       451.3086
           7      1375.1285       407.2187         6.1658       407.1720
           8       615.1197       374.5215         6.4099       374.4666
           9       671.8557       349.5210         6.6573       349.4576
          10       741.5825       330.1375         6.9098       330.0652
          11       944.4397       314.7948         7.1662       314.7133
          12       773.9083       302.4992         7.4264       302.4081
          13       781.1546       292.6239         7.6913       292.5228
          14       816.6047       284.5589         7.9592       284.4475
          15      1049.7436       277.3352         8.2211       277.2133
          16       590.9440       270.3979         8.4711       270.2652
          17      1044.9716       264.7959         8.7275       264.6521
          18       664.1794       261.3629         9.0085       261.2076
          19       848.1386       258.9693         9.2992       258.8023
          20       730.0336       256.4592         9.5806       256.2802
          21       652.8780       253.9846         9.8556       253.7933
          22       534.6604       251.8953        10.1315       251.6915
          23       751.2205       250.2017        10.4100       249.9850
          24       792.3003       248.8276        10.6900       248.5978
          25       759.6284       247.6718        10.9706       247.4287
          26       867.1429       246.6624        11.2504       246.4057
          27      1087.9582       245.8582        11.5313       245.5876
          28      1239.0935       245.3406        11.8161       245.0559
          29      1131.2484       245.0102        12.1027       244.7111
          30       864.0617       244.7380        12.3883       244.4242
          31      1124.2874       244.5630        12.6744       244.2343
          32      1525.7716       244.5448        12.9626       244.2010
          33      1129.0811       244.6514        13.2526       244.2922
          34      1146.0430       244.8530        13.5437       244.4781
          35       837.8152       245.1434        13.8362       244.7527
          36      1110.6870       245.5170        14.1300       245.1100
          37      1281.6460       245.9685        14.4251       245.5452
          38      1376.8700       246.5348        14.7229       246.0948
          39      1398.4880       247.1488        15.0218       246.6919
          40      1876.4240       247.8478        15.3227       247.3737
          41      1344.8230       248.5679        15.6240       248.0764
          42      1501.0460       249.3467        15.9270       248.8375
          43      1542.4449       250.1811        16.2316       249.6540
          44      1423.0031       251.0685        16.5380       250.5232
          45      1217.3929       251.9874        16.8455       251.4237
          46      1170.1290       252.9548        17.1549       252.3725
          47      1589.9611       253.9871        17.4666       253.3858
          48      1012.0920       255.0451        17.7796       254.4246
          49      1663.4399       256.1637        18.0952       255.5237
          50      1506.9570       257.3047        18.4121       256.6450
          51      1228.0811       258.4848        18.7309       257.8053
          52      1645.1920       259.7202        19.0523       259.0204
          53      1145.4969       260.9565        19.3744       260.2363
          54      1171.4980       262.2453        19.6992       261.5044
          55      1598.4449       263.5679        20.0262       262.8060
          56      1645.1490       264.9230        20.3551       264.1398
          57      1474.7629       266.3263        20.6869       265.5217
          58      1837.7419       267.7430        21.0199       266.9167
          59      1356.1639       269.1892        21.3551       268.3408
          60      2060.9490       270.6805        21.6938       269.8097
          61      1467.3430       272.1990        22.0340       271.3058
          62      2206.2410       273.7443        22.3765       272.8282
          63      1778.2880       275.3314        22.7218       274.3923
          64      1366.5300       276.9276        23.0686       275.9651
          65      1749.3420       278.5640        23.4188       277.5779
          66      1767.4561       280.2241        23.7710       279.2141
          67      1496.5490       281.9228        24.1262       280.8886
          68      1999.6520       283.6437        24.4838       282.5850
          69      2334.7229       285.3863        24.8437       284.3028
          70      1677.4530       287.1500        25.2056       286.0416
          71      1897.1960       288.9497        25.5709       287.8160
          72      1442.4990       290.7694        25.9384       289.6101
          73      2680.3049       292.6086        26.3086       291.4235
          74      2173.2351       294.4820        26.6816       293.2707
          75      1990.5850       296.3739        27.0567       295.1363
          76      1636.8900       298.2988        27.4354       297.0344
          77      1940.7760       300.2268        27.8156       298.9355
          78      1621.7190       302.1868        28.1993       300.8682
          79      1828.7679       304.1783        28.5857       302.8321
          80      2454.4961       306.1865        28.9752       304.8124
          81      2080.2271       308.2108        29.3668       306.8086
          82      3005.0510       310.2653        29.7616       308.8346
          83      2109.5391       312.3355        30.1589       310.8760
          84      1663.3280       314.4210        30.5589       312.9325
          85      2467.2859       316.5355        30.9620       315.0175
          86      2506.3369       318.6785        31.3682       317.1309
          87      2353.0610       320.8358        31.7771       319.2582
          88      2022.9130       323.0210        32.1893       321.4131
          89      2831.1809       325.2200        32.6040       323.5815
          90      2246.3679       327.4326        33.0218       325.7632
          91      2515.3081       329.6721        33.4424       327.9715
          92      2481.9851       331.9248        33.8659       330.1926
          93      2981.4990       334.1905        34.2920       332.4265
          94      2408.4060       336.4691        34.7205       334.6728
          95      2226.0491       338.7602        35.1518       336.9315
          96      2308.9819       341.0771        35.5867       339.2156
          97      2720.3491       343.3932        36.0234       341.4985
          98      1910.8870       345.7346        36.4636       343.8064
          99      2762.3721       348.0752        36.9057       346.1131
         100      3010.1770       350.4406        37.3514       348.4444
         101      2573.5879       352.8051        37.7991       350.7744
         102      2797.8291       355.1941        38.2505       353.1285
         103      2671.9829       357.5821        38.7037       355.4813
         104      3160.2051       359.9816        39.1597       357.8453
         105      2300.2561       362.3926        39.6186       360.2204
         106      2868.0901       364.8027        40.0796       362.5943
         107      3236.7241       367.2364        40.5440       364.9914
         108      3923.9041       369.6690        41.0105       367.3872
         109      3076.4060       372.1007        41.4793       369.7815
         110      3332.7939       374.5558        41.9516       372.1990
         111      2966.7371       376.9976        42.4255       374.6028
         112      3263.0750       379.4627        42.9028       377.0295
         113      2280.7261       381.9267        43.3825       379.4548
         114      2079.8159       384.3897        43.8642       381.8788
         115      3133.2910       386.8518        44.3483       384.3014
         116      3833.1421       389.3250        44.8354       386.7347
         117      4369.9170       391.7973        45.3248       389.1668
         118      4028.7290       394.2570        45.8154       391.5859
         119      3500.2781       396.7278        46.3093       394.0157
         120      2841.2620       399.1979        46.8053       396.4445
         121      4388.8579       401.6557        47.3030       398.8605
         122      3478.0740       404.1132        47.8031       401.2759
         123      3914.9070       406.5702        48.3054       403.6903
         124      2847.5610       409.0154        48.8094       406.0927
         125      3337.8420       411.4604        49.3157       408.4943
         126      3617.2061       413.8939        49.8237       410.8841
         127      3475.7729       416.3161        50.3335       413.2622
         128      3686.6121       418.7384        50.8456       415.6399
         129      3311.3279       421.1496        51.3592       418.0063
         130      3874.3230       423.5499        51.8748       420.3612
         131      3512.9590       425.9395        52.3921       422.7050
         132      3207.3379       428.3074        52.9104       425.0267
         133      3727.5249       430.6760        53.4310       427.3487
         134      3780.8030       433.0234        53.9528       429.6491
         135      4199.2720       435.3608        54.4763       431.9391
         136      4811.7622       437.6774        55.0009       434.2078
         137      4031.4971       439.9734        55.5265       436.4555
         138      4309.1689       442.2599        56.0539       438.6933
         139      4549.7119       444.5264        56.5826       440.9106
         140      4141.4468       446.7730        57.1122       443.1076
         141      4334.3799       448.9892        57.6424       445.2737
         142      4488.7100       451.1969        58.1744       447.4308
         143      4400.4780       453.3747        58.7070       449.5577
         144      3916.8369       455.5337        59.2404       451.6653
         145      5174.0239       457.6632        59.7744       453.7429
         146      3996.9341       459.7746        60.3097       455.8020
         147      4300.6328       461.8467        60.8445       457.8213
         148      3875.3550       463.9011        61.3807       459.8224
         149      3817.8650       465.9274        61.9172       461.7949
         150      4540.1250       467.9259        62.4543       463.7392
         151      4167.8721       469.8970        62.9921       465.6556
         152      4494.1460       471.8305        63.5293       467.5340
         153      4892.8281       473.7372        64.0668       469.3851
         154      4074.2371       475.6174        64.6053       471.2091
         155      4945.1851       477.4610        65.1432       472.9962
         156      4162.9648       479.2788        65.6822       474.7568
         157      4621.1118       481.0606        66.2206       476.4810
         158      5517.5859       482.8069        66.7588       478.1692
         159      5009.3149       484.5180        67.2966       479.8217
         160      4964.1138       486.2044        67.8354       481.4489
         161      4589.5181       487.8562        68.3737       483.0411
         162      4716.9819       489.4738        68.9116       484.5986
         163      4531.1211       491.0473        69.4488       486.1114
         164      5241.2109       492.5974        69.9866       487.6003
         165      4803.0830       494.1041        70.5233       489.0454
         166      4890.2681       495.5781        71.0606       490.4569
         167      5176.5820       497.0193        71.5963       491.8355
         168      5225.4570       498.4181        72.1317       493.1710
         169      5102.5459       499.7852        72.6676       494.4741
         170      4379.1982       501.1106        73.2008       495.7352
         171      4630.2192       502.3947        73.7338       496.9545
         172      5102.1631       503.6479        74.2670       498.1422
         173      4921.2090       504.8606        74.7995       499.2887
         174      4884.7290       506.0426        75.3305       500.4043
         175      4962.9829       507.1754        75.8612       501.4698
         176      4842.8960       508.2684        76.3903       502.4951
         177      4978.6118       509.3220        76.9177       503.4805
         178      4918.0122       510.3369        77.4436       504.4266
         179      6107.0879       511.3135        77.9706       505.3337
         180      5315.3530       512.2422        78.4962       506.1921
         181      4322.7080       513.1328        79.0185       507.0122
         182      4940.4990       513.9763        79.5393       507.7846
         183      4835.3521       514.7827        80.0601       508.5190
         184      5550.8608       515.5425        80.5774       509.2066
         185      5847.0859       516.2565        81.0951       509.8474
         186      5145.4741       516.9339        81.6091       510.4514
         187      5264.3452       517.5567        82.1222       510.9999
         188      6206.6860       518.1440        82.6342       511.5122
         189      5990.6401       518.6768        83.1423       511.9697
         190      5899.9902       519.1654        83.6489       512.3822
         191      5579.3848       519.6101        84.1535       512.7502
         192      5993.9492       520.0020        84.6566       513.0647
         193      5782.9629       520.3503        85.1565       513.3350
         194      5355.0508       520.6556        85.6544       513.5616
         195      4878.0459       520.9089        86.1492       513.7358
         196      5550.8359       521.1110        86.6427       513.8577
         197      5469.1372       521.2615        87.1301       513.9279
         198      5949.8149       521.3614        87.6170       513.9465
         199      5413.2080       521.4109        88.1008       513.9140
         200      5985.7788       521.4192        88.5822       513.8397
         201      5165.7939       521.3687        89.0593       513.7059
         202      5786.8398       521.2686        89.5330       513.5219
         203      6000.0869       521.1195        90.0044       513.2882
         204      6317.9619       520.9126        90.4716       512.9960
         205      5730.7661       520.6664        90.9369       512.6636
         206      5690.1118       520.3629        91.3965       512.2735
         207      5410.2979       520.0208        91.8554       511.8440
         208      5398.6011       519.6219        92.3084       511.3571
         209      4530.5581       519.1760        92.7588       510.8224
         210      6081.5200       518.6833        93.2059       510.2401
         211      5932.8340       518.1442        93.6504       509.6107
         212      5677.1431       517.5587        94.0905       508.9341
         213      6116.6250       516.9270        94.5260       508.2109
         214      5683.5190       516.2499        94.9596       507.4412
         215      6817.2051       515.5187        95.3888       506.6167
         216      5866.3379       514.7508        95.8136       505.7550
         217      5351.4009       513.9295        96.2349       504.8390
         218      6212.5381       513.0725        96.6532       503.8865
         219      5315.8950       512.1621        97.0659       502.8799
         220      6270.8149       511.2167        97.4763       501.8375
         221      6265.1230       510.2189        97.8823       500.7418
         222      6218.2212       509.1860        98.2841       499.6104
         223      5751.6421       508.1013        98.6820       498.4263
         224      5344.3340       506.9823        99.0762       497.2072
         225      5391.1509       505.8118        99.4653       495.9357
         226      5923.9370       504.6074        99.8509       494.6296
         227      5969.0122       503.3520       100.2310       493.2717
         228      4884.5962       502.0633       100.6085       491.8796
         229      5079.5581       500.7242       100.9801       490.4363
         230      5578.1421       499.3522       101.3490       488.9591
         231      5896.3159       497.9384       101.7116       487.4396
         232      6553.2412       496.4838       102.0714       485.8782
         233      6165.4888       494.9797       102.4241       484.2666
         234      4896.1279       493.4435       102.7743       482.6219
         235      6059.9888       491.8666       103.1189       480.9358
         236      6220.1528       490.2496       103.4592       479.2086
         237      5028.1128       488.6009       103.7947       477.4489
         238      5943.4951       486.9039       104.1247       475.6400
         239      5748.7158       485.1672       104.4495       473.7905
         240      6133.1118       483.3995       104.7702       471.9091
         241      5693.0161       481.5842       105.0849       469.9792
         242      5367.8550       479.7382       105.3955       468.0177
         243      5632.0342       477.8532       105.6998       466.0163
         244      5154.1621       475.9296       105.9991       463.9754
         245      6438.9722       473.9675       106.2928       461.8951
         246      5711.5088       471.9670       106.5800       459.7755
         247      6066.6528       469.9368       106.8639       457.6251
         248      5677.4399       467.8605       107.1409       455.4276
         249      4630.8081       465.7544       107.4119       453.1996
         250      5513.4531       463.6110       107.6782       450.9330
         251      4840.8940       461.4301       107.9379       448.6281
         252      5831.2119       459.2201       108.1922       446.2931
         253      5187.8770       456.9730       108.4406       443.9200
         254      4779.2290       454.6890       108.6823       441.5090
         255      5241.3799       452.3762       108.9178       439.0685
         256      6079.6499       450.0351       109.1487       436.5983
         257      5303.8130       447.6577       109.3733       434.0909
         258      5149.0361       445.2520       109.5922       431.5541
         259      4804.9600       442.8259       109.8048       428.9962
         260      5446.5049       440.3643       110.0121       426.4013
         261      5206.9639       437.8826       110.2138       423.7855
         262      5950.5610       435.3731       110.4091       421.1408
         263      5831.5898       432.8361       110.5989       418.4675
         264      4932.1299       430.2797       110.7834       415.7735
         265      4424.7612       427.7038       110.9630       413.0590
         266      5390.2451       425.1005       111.1356       410.3161
         267      4864.4810       422.4778       111.3027       407.5527
         268      5613.7988       419.8357       111.4633       404.7690
         269      4678.4888       417.1748       111.6196       401.9650
         270      4284.1982       414.5025       111.7703       399.1488
         271      5178.3809       411.8035       111.9147       396.3044
         272      6142.4468       409.0933       112.0540       393.4479
         273      4765.6782       406.3642       112.1872       390.5712
         274      5499.7510       403.6242       112.3155       387.6825
         275      4391.4609       400.8732       112.4385       384.7817
         276      3888.8950       398.1034       112.5554       381.8608
         277      5225.2720       395.3227       112.6665       378.9279
         278      4735.1470       392.5312       112.7725       375.9829
         279      5392.8120       389.7368       112.8745       373.0337
         280      4188.4668       386.9236       112.9694       370.0646
         281      4538.2642       384.1077       113.0606       367.0913
         282      5423.5850       381.2809       113.1454       364.1061
         283      5592.6440       378.4432       113.2241       361.1088
         284      4585.8369       375.6026       113.2983       358.1072
         285      4205.3672       372.7591       113.3679       355.1015
         286      4664.7261       369.9123       113.4321       352.0913
         287      4284.6499       367.0551       113.4907       349.0691
         288      4213.7451       364.2024       113.5451       346.0504
         289      4731.6572       361.3391       113.5936       343.0196
         290      4597.8418       358.4803       113.6378       339.9921
         291      3474.2810       355.6185       113.6765       336.9602
         292      4674.8281       352.7614       113.7117       333.9315
         293      4654.7881       349.9009       113.7407       330.8984
         294      4364.3071       347.0452       113.7660       327.8684
         295      4143.8579       344.1863       113.7857       324.8338
         296      4487.4790       341.3317       113.8008       321.8023
         297      4206.9629       338.4814       113.8109       318.7737
         298      3963.6790       335.6431       113.8185       315.7557
         299      4228.5601       332.8016       113.8203       312.7329
         300      5046.4072       329.9719       113.8183       309.7206
         301      3518.0569       327.1387       113.8101       306.7035
         302      4186.7090       324.3248       113.7998       303.7041
         303      3612.1069       321.5076       113.7838       300.6998
         304      4082.7041       318.7093       113.7651       297.7131
         305      4095.3589       315.9150       113.7415       294.7289
         306      3633.9390       313.1320       113.7140       291.7547
         307      3806.8530       310.3606       113.6830       288.7903
         308      3831.0139       307.6006       113.6488       285.8358
         309      3649.5249       304.8441       113.6086       282.8834
         310      4012.0901       302.1062       113.5659       279.9481
         311      3858.0920       299.3869       113.5211       277.0298
         312      3570.5400       296.6712       113.4707       274.1135
         313      3482.3450       293.9738       113.4177       271.2140
         314      2963.0449       291.2946       113.3620       268.3311
         315      3718.8301       288.6263       113.3023       265.4576
         316      4000.5110       285.9760       113.2401       262.6004
         317      3191.5730       283.3439       113.1755       259.7596
         318      3106.3889       280.7294       113.1076       256.9352
         319      3825.1069       278.1262       113.0358       254.1202
         320      3871.5049       275.5480       112.9628       251.3287
         321      2885.2480       272.9877       112.8873       248.5533
         322      3631.9331       270.4447       112.8087       245.7937
         323      3353.8120       267.9267       112.7294       243.0572
         324      3451.2991       265.4256       112.6470       240.3361
         325      3262.9890       262.9413       112.5614       237.6301
         326      3669.4170       260.4814       112.4749       234.9468
         327      3073.1599       258.0459       112.3871       232.2861
         328      3165.4929       255.6346       112.2982       229.6479
         329      3292.3511       253.2476       112.2084       227.0321
         330      2887.8870       250.8765       112.1152       224.4308
         331      3121.7209       248.5366       112.0230       221.8587
         332      2730.7200       246.2204       111.9295       219.3086
         333      2654.3101       243.9280       111.8354       216.7804
         334      3118.9231       241.6661       111.7413       214.2811
         335      2832.5520       239.4281       111.6468       211.8037
         336      3098.5859       237.2139       111.5512       209.3484
         337      2990.6121       235.0375       111.4588       206.9289
         338      3034.2810       232.8839       111.3649       204.5307
         339      2582.3989       230.7609       111.2727       202.1607
         340      3369.9741       228.6605       111.1794       199.8118
         341      2471.6621       226.5974       111.0894       197.4982
         342      2881.7061       224.5638       111.0001       195.2124
         343      2699.9971       222.5601       110.9125       192.9544
         344      2754.3579       220.5932       110.8287       190.7312
         345      2657.0481       218.6556       110.7460       188.5354
         346      2709.8931       216.7473       110.6649       186.3671
         347      2305.1680       214.8754       110.5876       184.2330
         348      2337.4299       213.0397       110.5144       182.1332
         349      2386.1631       211.2327       110.4427       180.0602
         350      2307.7190       209.4617       110.3751       178.0212
         351      2599.5720       207.7332       110.3131       176.0229
         352      2484.0291       206.0340       110.2551       174.0512
         353      2664.0330       204.3699       110.2006       172.1130
         354      2465.2930       202.7407       110.1500       170.2080
         355      2354.0200       201.1475       110.1056       168.3362
         356      2315.0930       199.5891       110.0656       166.4974
         357      2203.1321       198.0659       110.0310       164.6915
         358      2366.3601       196.5770       110.0006       162.9183
         359      2086.0491       195.1301       109.9783       161.1847
         360      2555.4990       193.7109       109.9596       159.4766
         361      2687.2581       192.3264       109.9470       157.8009
         362      2321.6079       190.9761       109.9398       156.1573
         363      2431.9431       189.6663       109.9398       154.5528
         364      2468.6240       188.3850       109.9460       152.9732
         365      1804.7920       187.1448       109.9608       151.4324
         366      1930.6060       185.9301       109.9776       149.9164
         367      2169.3879       184.7566       110.0042       148.4388
         368      2114.0811       183.6174       110.0387       146.9926
         369      2340.3430       182.5116       110.0800       145.5777
         370      1961.5250       181.4380       110.1265       144.1941
         371      2175.0039       180.3995       110.1831       142.8414
         372      2216.3530       179.4009       110.2493       141.5266
         373      2341.3870       178.4273       110.3189       140.2356
         374      1995.5830       177.4951       110.4013       138.9822
         375      2321.8501       176.5952       110.4907       137.7594
         376      1959.1250       175.7295       110.5907       136.5671
         377      1752.6010       174.8936       110.6944       135.4050
         378      2368.1399       174.0998       110.8134       134.2800
         379      2307.2810       173.3369       110.9389       133.1851
         380      1953.9490       172.6081       111.0758       132.1201
         381      1858.2350       171.9112       111.2213       131.0850
         382      1718.2240       171.2530       111.3782       130.0865
         383      1945.7371       170.6193       111.5408       129.1108
         384      2051.7690       170.0257       111.7176       128.1714
         385      1731.6949       169.4686       111.9036       127.2682
         386      1661.3440       168.9391       112.1009       126.3875
         387      2362.3740       168.4477       112.3104       125.5428
         388      1837.5330       167.9863       112.5279       124.7272
         389      1819.7970       167.5651       112.7614       123.9473
         390      1827.0630       167.1764       113.0073       123.1962
         391      1754.0811       166.8158       113.2592       122.4740
         392      1764.5229       166.4960       113.5290       121.7871
         393      1588.9640       166.2064       113.8085       121.1287
         394      2191.9370       165.9472       114.0986       120.4989
         395      1804.1541       165.7268       114.4045       119.9040
         396      1684.8020       165.5372       114.7220       119.3375
         397      1507.7130       165.3801       115.0538       118.7990
         398      1641.9240       165.2570       115.3954       118.2953
         399      1527.9969       165.1749       115.7572       117.8262
         400      1916.3190       165.1206       116.1273       117.3850
         401      1695.7321       165.0992       116.5136       116.9715
         402      1744.9200       165.1138       116.9136       116.5923
         403      1602.6190       165.1588       117.3266       116.2407
         404      1685.9520       165.2340       117.7524       115.9166
         405      1762.0780       165.3474       118.1959       115.6264
         406      2018.6270       165.4834       118.6487       115.3570
         407      2038.4020       165.6563       119.1180       115.1213
         408      1810.3120       165.8593       119.6008       114.9128
         409      1604.2540       166.0919       120.0968       114.7313
         410      1434.4640       166.3474       120.6032       114.5702
         411      2052.4619       166.6415       121.1293       114.4425
         412      1657.2490       166.9566       121.6636       114.3350
         413      1724.8979       167.3027       122.2136       114.2542
         414      1636.0160       167.6724       122.7757       114.1936
         415      1899.1740       168.0711       123.3512       114.1594
         416      1951.0220       168.4997       123.9416       114.1518
         417      1552.1400       168.9508       124.5429       114.1641
         418      1642.1240       169.4251       125.1564       114.1961
         419      1651.4570       169.9281       125.7835       114.2545
         420      1683.0520       170.4485       126.4209       114.3260
         421      1630.6490       170.9984       127.0735       114.4236
         422      1933.3080       171.5778       127.7413       114.5473
         423      1947.2660       172.1726       128.4172       114.6841
         424      1914.2800       172.7919       129.1075       114.8403
         425      1575.9360       173.4321       129.8078       115.0159
         426      1771.1880       174.0960       130.5216       115.2108
         427      1696.9240       174.7832       131.2487       115.4251
         428      1567.9490       175.4856       131.9841       115.6521
         429      2057.4541       176.2106       132.7319       115.8983
         430      1521.9950       176.9580       133.4921       116.1637
         431      1675.3700       177.7228       134.2636       116.4417
         432      1822.0341       178.5092       135.0467       116.7387
         433      1791.5370       179.3122       135.8401       117.0484
         434      1898.1379       180.1375       136.6462       117.3770
         435      1812.8781       180.9728       137.4596       117.7116
         436      1588.4590       181.8311       138.2864       118.0652
         437      1905.4690       182.7049       139.1227       118.4312
         438      1952.9890       183.5944       139.9686       118.8096
         439      1780.9091       184.5059       140.8268       119.2067
         440      1786.8270       185.4280       141.6934       119.6098
         441      1873.2360       186.3681       142.5729       120.0252
         442      2251.9370       187.3213       143.4586       120.4528
         443      1701.5750       188.2856       144.3537       120.8863
         444      1571.1429       189.2728       145.2625       121.3384
         445      1852.4690       190.2618       146.1737       121.7899
         446      1721.0670       191.2746       147.1002       122.2600
         447      1731.2200       192.2965       148.0333       122.7359
         448      1916.1639       193.3289       148.9748       123.2175
         449      1816.6670       194.3765       149.9258       123.7112
         450      1901.0310       195.4352       150.8862       124.2107
         451      2018.8430       196.5108       151.8580       124.7222
         452      2236.2200       197.5888       152.8333       125.2331
         453      2048.0801       198.6811       153.8168       125.7560
         454      1840.1230       199.7853       154.8108       126.2845
         455      2206.4990       200.8999       155.8132       126.8188
         456      2133.9690       202.0183       156.8209       127.3523
         457      1745.1281       203.1519       157.8380       127.8979
         458      1995.7889       204.2885       158.8593       128.4427
         459      2170.3030       205.4371       159.8911       128.9932
         460      1968.4091       206.5958       160.9310       129.5493
         461      2188.5220       207.7623       161.9762       130.1111
         462      2499.3870       208.9344       163.0288       130.6721
         463      2258.2271       210.1103       164.0865       131.2325
         464      2172.1240       211.2964       165.1524       131.7985
         465      2710.6460       212.4848       166.2216       132.3638
         466      2312.2109       213.6865       167.3029       132.9347
         467      2241.0029       214.8842       168.3844       133.4987
         468      2100.1560       216.0927       169.4749       134.0683
         469      2170.0801       217.3052       170.5707       134.6372
         470      2194.5430       218.5206       171.6705       135.2054
         471      2564.8340       219.7423       172.7783       135.7731
         472      2116.9160       220.9670       173.8903       136.3400
         473      2435.2371       222.1963       175.0081       136.9064
         474      2089.3931       223.4241       176.1291       137.4659
         475      2109.2251       224.6557       177.2549       138.0248
         476      2511.1980       225.8918       178.3868       138.5831
         477      2197.0020       227.1255       179.5204       139.1346
         478      2234.6130       228.3654       180.6619       139.6855
         479      2345.1951       229.6091       181.8083       140.2358
         480      2207.1819       230.8442       182.9535       140.7732
         481      2231.7080       232.0855       184.1064       141.3100
         482      1959.6429       233.3236       185.2601       141.8401
         483      2734.2661       234.5678       186.4215       142.3696
         484      2510.7581       235.8044       187.5826       142.8863
         485      1860.8540       237.0447       188.7482       143.4025
         486      2574.0820       238.2850       189.9185       143.9121
         487      2140.7649       239.5183       191.0892       144.4089
         488      2381.8701       240.7493       192.2615       144.8990
         489      2427.5081       241.9842       193.4384       145.3888
         490      2478.1890       243.2082       194.6156       145.8596
         491      2230.7490       244.4355       195.7963       146.3301
         492      2705.8411       245.6564       196.9782       146.7879
         493      2698.4380       246.8759       198.1624       147.2392
         494      2531.1531       248.0893       199.3478       147.6779
         495      2263.8201       249.2959       200.5334       148.1040
         496      2183.1340       250.5010       201.7212       148.5237
         497      2290.5950       251.6992       202.9090       148.9309
         498      2254.5171       252.8907       204.0969       149.3256
         499      2138.8911       254.0822       205.2888       149.7139
         500      3051.4150       255.2615       206.4784       150.0837
         501      3103.3149       256.4388       207.6691       150.4472
         502      2405.1689       257.6038       208.8574       150.7922
         503      2737.9619       258.7638       210.0475       151.1250
         504      2468.9419       259.9223       211.2394       151.4514
         505      2429.3640       261.0681       212.4278       151.7596
         506      2510.9709       262.2086       213.6177       152.0554
         507      2161.2991       263.3478       214.8093       152.3451
         508      2170.8369       264.4758       215.9991       152.6165
         509      2387.9880       265.5972       217.1885       152.8759
         510      2876.7849       266.7126       218.3780       153.1230
         511      2214.6130       267.8214       219.5669       153.3580
         512      3084.4500       268.9252       220.7570       153.5810
         513      2889.3120       270.0224       221.9462       153.7919
         514      2316.8379       271.1143       223.1364       153.9907
         515      2300.3701       272.2005       224.3265       154.1776
         516      2467.7891       273.2750       225.5136       154.3465
         517      2780.9500       274.3496       226.7037       154.5094
         518      2759.4160       275.4123       227.8903       154.6544
         519      2304.8491       276.4754       229.0799       154.7935
         520      2503.1531       277.5282       230.2679       154.9147
         521      2175.7170       278.5745       231.4546       155.0241
         522      2335.7910       279.6165       232.6427       155.1217
         523      2767.5891       280.6520       233.8294       155.2075
         524      2447.7549       281.6766       235.0132       155.2755
         525      2900.3000       282.7013       236.1995       155.3378
         526      2362.1650       283.7159       237.3838       155.3823
         527      2386.6780       284.7255       238.5681       155.4152
         528      3005.2019       285.7295       239.7516       155.4365
         529      2605.0259       286.7294       240.9362       155.4461
         530      2524.3721       287.7241       242.1205       155.4441
         531      2732.3889       288.7149       243.3057       155.4305
         532      2407.4580       289.6939       244.4864       155.3993
         533      2546.6570       290.6672       245.6659       155.3566
         534      2357.8701       291.6372       246.8469       155.3024
         535      3048.5581       292.6020       248.0272       155.2367
         536      2493.9419       293.5579       249.2059       155.1536
         537      2228.6750       294.5145       250.3870       155.0650
         538      2936.5239       295.4612       251.5652       154.9590
         539      2446.8081       296.4014       252.7407       154.8416
         540      3060.4299       297.3345       253.9165       154.7070
         541      2111.9741       298.2613       255.0896       154.5610
         542      1777.8910       299.1922       256.2687       154.4095
         543      2772.6350       300.1048       257.4383       154.2349
         544      2777.5249       301.0199       258.6118       154.0550
         545      2295.5200       301.9281       259.7851       153.8579
         546      2593.5540       302.8297       260.9553       153.6495
         547      2798.6150       303.7289       262.1269       153.4299
         548      3013.6360       304.6177       263.2941       153.1932
         549      2371.3569       305.5042       264.4627       152.9454
         550      1941.9821       306.3864       265.6304       152.6864
         551      2828.5471       307.2594       266.7947       152.4104
         552      2718.6421       308.1290       267.9589       152.1233
         553      2106.3149       308.9967       269.1247       151.8250
         554      2612.6489       309.8599       270.2890       151.5157
         555      2743.9070       310.7149       271.4506       151.1895
         556      2563.2141       311.5672       272.6127       150.8523
         557      2332.1240       312.4211       273.7768       150.5099
         558      2994.6580       313.2687       274.9401       150.1507
         559      2683.1489       314.1128       276.1026       149.7805
         560      2264.5610       314.9542       277.2652       149.3993
         561      2784.0730       315.7987       278.4312       149.0130
         562      2926.3491       316.6354       279.5945       148.6099
         563      2745.0459       317.4751       280.7609       148.2018
         564      3119.1379       318.3136       281.9287       147.7828
         565      2633.3911       319.1499       283.0968       147.3529
         566      2320.7061       319.9900       284.2687       146.9179
         567      2023.0100       320.8215       285.4365       146.4663
         568      2274.2000       321.6631       286.6124       146.0155
         569      1579.5720       322.4974       287.7853       145.5480
         570      2540.1531       323.3370       288.9635       145.0755
         571      2891.6321       324.1795       290.1443       144.5981
         572      2206.2251       325.0200       291.3251       144.1099
         573      2678.7781       325.8667       292.5121       143.6167
         574      2166.5090       326.7161       293.7014       143.1184
         575      2371.7439       327.5656       294.8928       142.6095
         576      2433.8469       328.4203       296.0890       142.0957
         577      2571.7100       329.2796       297.2896       141.5768
         578      2560.5820       330.1374       298.4902       141.0472
         579      2725.6580       331.0057       299.6987       140.5186
         580      2525.8530       331.8738       300.9088       139.9791
         581      3134.4670       332.7524       302.1266       139.4406
         582      2060.6421       333.6303       303.3453       138.8913
         583      2552.0190       334.5147       304.5701       138.3372
         584      2378.9641       335.4091       305.8020       137.7839
         585      2220.5840       336.3109       307.0410       137.2257
         586      2867.3149       337.2101       308.2783       136.6568
         587      2222.6521       338.1234       309.5275       136.0888
         588      2161.6279       339.0459       310.7829       135.5217
         589      2413.1990       339.9759       312.0452       134.9497
         590      1931.1720       340.9117       313.3126       134.3727
         591      2343.2991       341.8529       314.5845       133.7909
         592      2252.4490       342.8067       315.8663       133.2100
         593      1889.0620       343.7673       317.1542       132.6242
         594      2482.4360       344.7388       318.4501       132.0392
         595      1768.8060       345.7229       319.7560       131.4551
         596      2129.4409       346.7145       321.0686       130.8661
         597      2838.1509       347.7167       322.3888       130.2779
         598      2488.9529       348.7274       323.7169       129.6849
         599      2274.6960       349.7499       325.0539       129.0927
         600      2236.0991       350.7856       326.4016       128.5013
         601      2075.8989       345.5043       314.8895       142.1893
         602      2323.1809       346.1756       315.9515       141.4643
         603      2225.7781       346.8584       317.0217       140.7409
         604      1810.8870       347.5475       318.0970       140.0127
         605      1994.3860       348.2538       319.1839       139.2924
         606      3162.9490       348.9710       320.2781       138.5737
         607      2277.5161       349.6936       321.3766       137.8502
         608      2368.5439       350.4340       322.4873       137.1346
         609      1490.0240       351.1855       323.6057       136.4206
         610      2407.8000       351.9487       324.7324       135.7081
         611      1940.9680       352.7302       325.8722       135.0034
         612      2302.4629       353.5172       327.0161       134.2940
         613      1890.8390       354.3229       328.1734       133.5924
         614      2552.1890       355.1441       329.3408       132.8985
         615      1946.8101       355.9799       330.5197       132.2061
         616      2655.0249       356.8270       331.7066       131.5152
         617      2366.6040       357.6858       332.9021       130.8257
         618      2116.8960       358.5693       334.1150       130.1502
         619      1832.3850       359.4577       335.3317       129.4698
         620      2078.8420       360.3725       336.5680       128.8034
         621      1565.6379       361.2972       337.8109       128.1384
         622      2446.0149       362.2366       339.0657       127.4748
         623      1481.4000       363.2001       340.3377       126.8250
         624      1536.6990       364.1752       341.6183       126.1765
         625      1909.2510       365.1710       342.9150       125.5356
         626      1846.7990       366.1850       344.2251       124.9023
         627      2991.5029       367.2102       345.5434       124.2702
         628      2046.4360       368.2625       346.8825       123.6519
         629      1291.2460       369.3247       348.2286       123.0348
         630      2026.9189       370.4151       349.5968       122.4313
         631      1646.9189       371.5245       350.9795       121.8353
         632      1597.4860       372.6459       352.3715       121.2405
         633      1521.7650       373.7933       353.7835       120.6593
         634      2195.3799       374.9577       355.2081       120.0853
         635      2099.4800       376.1439       356.6504       119.5187
         636      1251.2570       377.3536       358.1102       118.9656
         637      1729.0129       378.5872       359.5902       118.4197
         638      1932.8700       379.8341       361.0789       117.8810
         639      2056.1689       381.1072       362.5904       117.3496
         640      1734.6040       382.3998       364.1154       116.8315
         641      1688.5850       383.7157       365.6600       116.3205
         642      2109.8279       385.0576       367.2253       115.8228
         643      2208.1370       386.4247       368.8105       115.3383
         644      2691.6321       387.8136       370.4138       114.8609
         645      1404.9590       389.2258       372.0351       114.3966
         646      1910.9919       390.6607       373.6758       113.9394
         647      2362.2571       392.1209       375.3367       113.4952
         648      2067.9021       393.6060       377.0175       113.0641
         649      1265.8630       395.1164       378.7187       112.6460
         650      2088.0210       396.6491       380.4391       112.2347
         651      1870.3020       398.2154       382.1869       111.8425
         652      1646.0280       399.8005       383.9502       111.4571
         653      1517.2791       401.4138       385.7372       111.0846
         654      1664.8700       403.0513       387.5440       110.7249
         655      2197.6689       404.7176       389.3752       110.3780
         656      1264.9360       406.4103       391.2284       110.0439
         657      1921.4919       408.1242       393.0983       109.7225
         658      1325.4800       409.8694       394.9956       109.4138
         659      1619.4010       411.6418       396.9176       109.1117
         660      1421.4449       413.4386       398.8582       108.8283
         661      1928.9860       415.2569       400.8178       108.5514
         662      1466.4070       417.1101       402.8086       108.2871
         663      1025.3120       418.9893       404.8214       108.0353
         664      2635.7810       420.8909       406.8527       107.7960
         665      2116.4041       422.8185       408.9063       107.5692
         666      1720.2660       424.7803       410.9905       107.3548
         667      1820.2000       426.7519       413.0820       107.1468
         668      2099.2419       428.7522       415.1987       106.9512
         669      1410.3800       430.7916       417.3497       106.7738
         670      1897.7150       432.8555       419.5232       106.6029
         671      2197.0640       434.9417       421.7170       106.4382
         672      1159.8781       437.0525       423.9303       106.2917
         673      1374.7760       439.1884       426.1671       106.1514
         674      1531.0630       441.3585       428.4333       106.0293
         675      2185.4929       443.5536       430.7228       105.9134
         676      1353.7140       445.7668       433.0270       105.8095
         677      1445.7410       448.0158       435.3656       105.7119
         678      1849.4139       450.2903       437.7250       105.6322
         679      1984.8960       452.5863       440.1042       105.5586
         680      2079.0779       454.9125       442.5107       105.4970
         681      2067.8379       457.2675       444.9432       105.4474
         682      1287.4880       459.6355       447.3867       105.4038
         683      2036.4900       462.0545       449.8776       105.3781
         684      2583.8401       464.4807       452.3737       105.3583
         685      1336.2670       466.9351       454.8953       105.3503
         686      1792.8220       469.4219       457.4466       105.3542
         687      2449.8860       471.9334       460.0213       105.3640
         688      2048.6399       474.4799       462.6284       105.3855
         689      2306.1221       477.0396       465.2458       105.4188
         690      2390.8940       479.6247       467.8859       105.4638
         691      1597.3000       482.2477       470.5616       105.5205
         692      1161.0990       484.8930       473.2583       105.5830
         693      1344.3090       487.5730       475.9874       105.6570
         694      2853.6919       490.2636       478.7242       105.7427
         695      1140.9010       492.9895       481.4953       105.8342
         696       982.4497       495.7390       484.2876       105.9372
         697      1565.1169       498.5120       487.1009       106.0517
         698      2132.4670       501.3232       489.9502       106.1777
         699      1315.8180       504.1576       492.8204       106.3151
         700      1741.9919       507.0116       495.7090       106.4582
         701      1370.9930       509.9012       498.6311       106.6126
         702      1579.1260       512.8185       501.5787       106.7785
         703      1910.7390       515.7499       504.5390       106.9499
         704      1491.9840       518.7215       507.5377       107.1327
         705      2390.2000       521.7152       510.5563       107.3268
         706      2419.1189       524.7253       513.5900       107.5264
         707      1923.2939       527.7751       516.6616       107.7373
         708      1839.3979       530.8408       519.7480       107.9536
         709      2259.7410       533.9404       522.8675       108.1754
         710      1971.5730       537.0458       525.9903       108.4084
         711      2163.9231       540.2062       529.1666       108.6525
         712      2856.7280       543.3662       532.3412       108.9021
         713      2046.4210       546.5597       535.5485       109.1570
         714      1640.4600       549.7703       538.7720       109.4173
         715      1856.0660       553.0248       542.0388       109.6831
         716      1113.2061       556.2711       545.2947       109.9598
         717      2323.9170       559.5811       548.6143       110.2419
         718       928.1011       562.8769       551.9182       110.5293
         719      2523.0979       566.2181       555.2670       110.8220
         720      1768.8320       569.5736       558.6290       111.1201
         721      2069.0249       572.9510       562.0121       111.4234
         722      1259.0439       576.3675       565.4338       111.7319
         723      2478.5229       579.7872       568.8576       112.0457
         724      2160.4041       583.2391       572.3129       112.3648
         725      1088.6050       586.7134       575.7909       112.6834
         726      1844.9771       590.2131       579.2923       113.0129
         727      1724.2870       593.7180       582.7990       113.3420
         728      2720.1819       597.2714       586.3538       113.6762
         729      2000.7500       600.8172       589.9008       114.0100
         730      1478.7590       604.4069       593.4914       114.3490
         731      1877.2410       608.0128       597.0972       114.6931
         732      2207.4680       611.6308       600.7152       115.0368
         733      2815.4290       615.2889       604.3729       115.3857
         734      1848.9310       618.9452       608.0286       115.7340
         735      1452.6680       622.6429       611.7253       116.0875
         736      1787.4130       626.3505       615.4320       116.4405
         737      3788.6589       630.0834       619.1644       116.7930
         738      2419.1750       633.8261       622.9055       117.1507
         739      2809.9980       637.6129       626.6914       117.5078
         740      2288.5591       641.3898       630.4672       117.8645
         741      1594.1230       645.2091       634.2849       118.2263
         742      1664.3850       649.0508       638.1263       118.5819
         743      1692.6940       652.8876       641.9617       118.9427
         744      1922.0330       656.7800       645.8535       119.3030
         745      1436.3669       660.6746       649.7474       119.6628
         746      1944.3450       664.5781       653.6514       120.0165
         747      2702.0190       668.5051       657.5780       120.3753
         748      2780.6750       672.4711       661.5442       120.7337
         749      2576.0430       676.4389       665.5132       121.0859
         750      1773.6520       680.4441       669.5200       121.4377
         751      2165.1111       684.4614       673.5381       121.7946
         752      3126.6101       688.4883       677.5677       122.1399
         753      3729.9509       692.5458       681.6273       122.4903
         754      2376.6030       696.6159       685.7006       122.8346
         755      2222.8030       700.7236       689.8120       123.1785
         756       906.3369       704.8390       693.9311       123.5219
         757      1831.0020       708.9556       698.0522       123.8594
         758      3076.9590       713.1200       702.2217       124.1964
         759      1749.0861       717.2861       706.3939       124.5274
         760      2273.6279       721.4878       710.6019       124.8580
         761      2768.1421       725.6920       714.8134       125.1827
         762      1695.8199       729.9135       719.0423       125.5068
         763      2708.8870       734.1649       723.3023       125.8251
         764      2735.2141       738.4481       727.5953       126.1375
         765      1134.8630       742.7304       731.8873       126.4495
         766      2953.9851       747.0505       736.2183       126.7555
         767      2224.6169       751.3645       740.5440       127.0557
         768      3700.0591       755.7420       744.9339       127.3555
         769      3711.9441       760.0964       749.3021       127.6439
         770      1546.9709       764.4878       753.7075       127.9320
         771      2240.7539       768.9079       758.1427       128.2142
         772      2069.4790       773.3292       762.5800       128.4907
         773      3450.1831       777.7771       767.0439       128.7667
         774      1993.0140       782.2494       771.5342       129.0315
         775      1063.0880       786.7323       776.0359       129.2905
         776      3079.1709       791.2445       780.5679       129.5437
         777      1328.8149       795.7727       785.1159       129.7967
         778      1495.4220       800.3247       789.6896       130.0384
         779      1672.4091       804.8968       794.2842       130.2744
         780      2835.3889       809.4883       798.8991       130.5047
         781      2040.9980       814.0945       803.5305       130.7238
         782      1101.4139       818.7352       808.1964       130.9427
         783      1772.2760       823.3792       812.8671       131.1504
         784      1285.9230       828.0525       817.5680       131.3526
         785      2348.8340       832.7396       822.2844       131.5436
         786      2619.9041       837.4559       827.0307       131.7290
         787      3495.6089       842.1797       831.7853       131.9088
         788      2709.6699       846.9427       836.5799       132.0830
         789      1386.0470       851.7075       841.3778       132.2462
         790      2894.0200       856.4752       846.1799       132.3985
         791      2353.6741       861.3020       851.0422       132.5451
         792      2474.2419       866.1191       855.8961       132.6809
         793       398.5547       870.9776       860.7921       132.8111
         794      1909.2460       875.8344       865.6878       132.9305
         795      2677.7219       880.7355       870.6294       133.0390
         796      2764.4541       885.6213       875.5560       133.1420
         797      2778.1580       890.5552       880.5332       133.2288
         798      1545.8820       895.5058       885.5275       133.3102
         799      2489.0769       900.4614       890.5272       133.3862
         800      2614.6179       905.4431       895.5553       133.4461
         801       909.5831       910.4566       900.6166       133.4952
         802      3388.5811       915.4752       905.6833       133.5389
         803      2284.5801       920.4979       910.7559       133.5667
         804      3881.5530       925.5564       915.8650       133.5891
         805      5156.7129       930.6456       921.0060       133.6009
         806       469.2187       935.7338       926.1470       133.6020
         807      3222.1570       940.8531       931.3204       133.5925
         808      2794.9451       945.9885       936.5109       133.5725
         809      2061.7051       951.1456       941.7242       133.5419
         810      2299.2981       956.3317       946.9678       133.5007
         811      2745.6279       961.5258       952.2202       133.4491
         812      2672.6340       966.7409       957.4946       133.3869
         813       322.3523       971.9755       962.7888       133.3197
         814      1490.5389       977.2345       968.1091       133.2366
         815      2388.5530       982.5051       973.4412       133.1484
         816      2966.1509       987.8044       978.8030       133.0498
         817      3520.5400       993.1171       984.1790       132.9408
         818      1684.2170       998.4732       989.5995       132.8215
         819      2374.6731      1003.8112       995.0025       132.6918
         820      4453.1738      1009.2095      1000.4668       132.5518
         821      2954.5891      1014.5879      1005.9117       132.4014
         822      1393.0720      1020.0236      1011.4144       132.2461
         823      2739.7610      1025.4574      1016.9164       132.0752
         824      1895.3409      1030.9328      1022.4602       131.8994
         825      2691.9800      1036.4115      1028.0080       131.7133
         826      2077.8320      1041.9176      1033.5838       131.5171
         827      3201.9910      1047.4336      1039.1702       131.3106
         828      4598.3008      1053.0013      1044.8091       131.0940
         829      3248.5830      1058.5466      1050.4260       130.8672
         830      1874.6700      1064.1566      1056.1078       130.6356
         831       716.3571      1069.7758      1061.7993       130.3939
         832       680.4425      1075.3913      1067.4881       130.1368
         833      2980.1069      1081.0377      1073.2078       129.8749
         834      4253.2949      1086.7236      1078.9671       129.6082
         835      3336.8000      1092.4373      1084.7553       129.3262
         836      2466.2400      1098.1571      1090.5494       129.0395
         837      3301.1860      1103.8782      1096.3456       128.7375
         838      2738.3230      1109.6638      1102.2065       128.4308
         839      2681.7891      1115.4477      1108.0660       128.1141
         840      1485.5540      1121.2394      1113.9336       127.7875
         841      1370.1460      1127.0934      1119.8636       127.4562
         842      2304.2170      1132.9542      1125.8006       127.1150
         843      2785.2771      1138.8079      1131.7313       126.7587
         844      4425.7920      1144.6985      1137.6986       126.3977
         845      2763.7000      1150.6315      1143.7083       126.0321
         846      4188.5781      1156.5857      1149.7400       125.6515
         847      2700.6030      1162.5470      1155.7784       125.2662
         848      3370.6360      1168.5350      1161.8445       124.8660
         849      1653.3669      1174.5334      1167.9204       124.4612
         850      1732.1780      1180.5666      1174.0315       124.0466
         851      4548.1260      1186.6290      1180.1714       123.6275
         852      3441.1570      1192.6906      1186.3112       123.1935
         853      1387.6270      1198.7948      1192.4933       122.7549
         854      2319.5081      1204.9251      1198.7016       122.3067
         855      1958.8850      1211.0909      1204.9451       121.8539
         856       925.7005      1217.2605      1211.1930       121.3863
         857       597.6024      1223.4280      1217.4382       120.9143
         858      3299.6550      1229.6667      1223.7545       120.4378
         859      4703.7402      1235.9100      1230.0753       119.9517
         860      3150.0759      1242.1847      1236.4276       119.4560
         861       990.9164      1248.4626      1242.7825       118.9559
         862      2492.3669      1254.7748      1249.1718       118.4462
         863      3872.0000      1261.1224      1255.5961       117.9321
         864      5381.3130      1267.5057      1262.0557       117.4136
         865      4902.2129      1273.8947      1268.5210       116.8856
         866      2045.2230      1280.3111      1275.0136       116.3481
         867      2949.4189      1286.7446      1281.5223       115.8113
         868       794.1602      1293.2361      1288.0891       115.2651
         869      1929.8680      1299.7280      1294.6561       114.7094
         870      1609.3260      1306.2397      1301.2420       114.1544
         871      1787.5560      1312.8055      1307.8821       113.5901
         872       636.5342      1319.3789      1314.5292       113.0214
         873        40.5990      1325.9904      1321.2138       112.4485
         874      2679.9490      1332.6148      1327.9108       111.8711
         875      3718.7739      1339.2978      1334.6660       111.2896
         876      1360.5280      1345.9896      1341.4294       110.7037
         877      3270.0740      1352.6874      1348.1985       110.1085
         878      3418.0750      1359.4541      1355.0359       109.5141
         879      1059.2000      1366.2279      1361.8796       108.9154
         880      4832.2871      1373.0384      1368.7600       108.3074
         881      4031.2200      1379.8867      1375.6772       107.7002
         882       454.7216      1386.7398      1382.5988       107.0887
         883      1139.7240      1393.6356      1389.5624       106.4731
         884       956.4010      1400.5737      1396.5675       105.8583
         885      1916.9510      1407.5097      1403.5702       105.2341
         886      1763.5170      1414.5222      1410.6486       104.6109
         887      1994.4091      1421.5419      1417.7337       103.9834
         888      4186.0020      1428.6051      1424.8614       103.3568
         889      1698.8500      1435.6712      1431.9914       102.7259
         890      1510.2120      1442.8107      1439.1943       102.0909
         891      2365.6521      1449.9558      1446.4019       101.4567
         892      1582.7640      1457.1448      1453.6529       100.8184
         893      2310.0139      1464.3450      1460.9141       100.1808
         894      1404.6560      1471.6125      1468.2423        99.5391
         895      3370.2400      1478.8964      1475.5859        98.8983
         896      -334.2026      1486.2204      1482.9688        98.2583
         897      4069.9419      1493.5802      1490.3870        97.6141
         898      1266.8580      1500.9856      1497.8499        96.9708
         899      1264.0500      1508.4059      1505.3270        96.3283
         900       797.2269      1515.8656      1512.8429        95.6817
         901      6913.2891      1523.3642      1520.3968        95.0359
         902      3006.7339      1530.9111      1527.9984        94.3909
         903      5150.8931      1538.4986      1535.6397        93.7469
         904      2179.1130      1546.1342      1543.3285        93.1036
         905      2496.7710      1553.7800      1551.0265        92.4612
         906      2101.0759      1561.4646      1558.7629        91.8147
         907      2558.1470      1569.2009      1566.5499        91.1740
         908      4294.5479      1576.9802      1574.3792        90.5341
         909       616.2561      1584.7994      1582.2480        89.8900
         910      1346.0040      1592.6374      1590.1346        89.2518
         911      2844.9280      1600.5494      1598.0945        88.6144
         912      1151.5680      1608.4769      1606.0691        87.9779
         913      2143.1641      1616.4788      1614.1174        87.3421
         914         4.7995      1624.4961      1622.1804        86.7072
         915      2749.5071      1632.5585      1630.2879        86.0731
         916     -1127.8560      1640.6714      1638.4449        85.4448
         917      5492.3940      1648.7965      1646.6135        84.8172
         918      1300.1990      1656.9998      1654.8596        84.1905
         919      1780.7469      1665.2518      1663.1536        83.5696
         920      2425.4780      1673.5152      1671.4584        82.9444
         921      1337.2390      1681.8664      1679.8501        82.3300
         922     -2441.3750      1690.2221      1688.2458        81.7115
         923      1002.0220      1698.6676      1696.7306        81.0986
         924      2872.6831      1707.1256      1705.2269        80.4915
         925       528.2661      1715.6257      1713.7650        79.8802
         926       502.5758      1724.2194      1722.3958        79.2795
         927      2368.2439      1732.8165      1731.0294        78.6796
         928      1513.9290      1741.4601      1739.7088        78.0805
         929      1910.9160      1750.1870      1748.4708        77.4870
         930       872.9520      1758.9616      1757.2801        76.8943
         931      2000.0920      1767.7888      1766.1409        76.3122
         932      1887.0031      1776.6224      1775.0078        75.7259
         933      2865.2759      1785.5446      1783.9624        75.1501
         934      2527.6609      1794.5093      1792.9590        74.5751
         935      -369.0513      1803.5211      1802.0020        74.0057
         936      3167.5400      1812.6147      1811.1263        73.4419
         937      6951.9492      1821.7184      1820.2600        72.8788
         938      2119.4800      1830.9008      1829.4719        72.3213
         939       846.3649      1840.1618      1838.7617        71.7694
         940      1254.0811      1849.4358      1848.0639        71.2231
         941      4798.6221      1858.7872      1857.4428        70.6824
         942       404.0829      1868.1523      1866.8349        70.1472
         943      1638.6340      1877.6271      1876.3360        69.6175
         944     -1635.9640      1887.1415      1885.8763        69.0934
         945      3023.8730      1896.7028      1895.4628        68.5748
         946      2481.0400      1906.3386      1905.1232        68.0618
         947       -75.3340      1916.0160      1914.8248        67.5542
         948      3716.9529      1925.7707      1924.6030        67.0521
         949      2414.9570      1935.5611      1934.4164        66.5555
         950      2618.3379      1945.4322      1944.3100        66.0693
         951       -37.0550      1955.3450      1954.2446        65.5885
         952      1873.7679      1965.3608      1964.2819        65.1131
         953     -1703.0210      1975.3816      1974.3236        64.6432
         954      -479.0250      1985.5437      1984.5060        64.1835
         955      2226.8359      1995.7107      1994.6929        63.7293
         956      4804.8462      2005.9166      2004.9182        63.2805
         957      1237.8920      2016.2269      2015.2473        62.8419
         958       360.7151      2026.6359      2025.6747        62.4086
         959       803.0668      2037.0222      2036.0791        61.9808
         960      -625.3635      2047.5323      2046.6067        61.5583
         961      2366.0171      2058.1187      2057.2102        61.1459
         962      2214.3589      2068.7423      2067.8505        60.7389
         963      1034.1760      2079.4268      2078.5512        60.3373
         964      -849.6015      2090.1872      2089.3274        59.9457
         965     -1626.3781      2101.0069      2100.1625        59.5594
         966     -3251.5339      2111.8904      2111.0610        59.1833
         967      3948.8740      2122.8395      2122.0249        58.8076
         968       700.8577      2133.8866      2133.0861        58.4419
         969      3295.8840      2144.9954      2144.2088        58.0864
         970      -858.6602      2156.1742      2155.4011        57.7360
         971      3313.3469      2167.4088      2166.6488        57.3909
         972      -444.0416      2178.7169      2177.9697        57.0558
         973      3265.6560      2190.0971      2189.3625        56.7211
         974      2429.1809      2201.5543      2200.8317        56.4012
         975      2381.6350      2213.0764      2212.3657        56.0817
         976      2361.1470      2224.6766      2223.9774        55.7722
         977      3422.1121      2236.3495      2235.6614        55.4725
         978      4172.2759      2248.0742      2247.3970        55.1781
         979     -1465.3040      2259.8868      2259.2202        54.8887
         980     -3500.7839      2271.7865      2271.1302        54.6045
         981      1567.2090      2283.7583      2283.1120        54.3302
         982      1215.8430      2295.7988      2295.1621        54.0610
         983      2995.7151      2307.9101      2307.2829        53.8016
         984      1034.8311      2320.1034      2319.4855        53.5426
         985     -1227.3450      2332.3541      2331.7450        53.2982
         986      1346.0780      2344.7219      2344.1216        53.0540
         987      -342.2053      2357.1407      2356.5489        52.8197
         988      3841.7380      2369.6488      2369.0651        52.5951
         989      4462.9028      2382.2178      2381.6421        52.3708
         990      3528.8921      2394.8552      2394.2872        52.1563
         991      2701.9270      2407.6174      2407.0568        51.9516
         992      2179.3870      2420.4192      2419.8659        51.7471
         993      3088.7200      2433.3504      2432.8042        51.5570
         994      2700.4370      2446.3203      2445.7809        51.3672
         995     -1029.7230      2459.3766      2458.8439        51.1871
         996      3352.9819      2472.5138      2471.9875        51.0120
         997      1842.8580      2485.7359      2485.2158        50.8465
         998     -1322.9890      2499.0926      2498.5786        50.6860
         999      3795.1680      2512.4909      2511.9827        50.5303
        1000      -458.2217      2525.9733      2525.4708        50.3843
        1001     -3408.7119      2539.5346      2539.0375        50.2433
        1002      3865.7649      2553.2130      2552.7213        50.1070
        1003      4087.2451      2566.9516      2566.4650        49.9804
        1004      1128.3800      2580.7681      2580.2864        49.8587
        1005      1500.1870      2594.7060      2594.2291        49.7465
        1006      1891.7900      2608.7164      2608.2441        49.6345
        1007      7800.9189      2622.8232      2622.3554        49.5320
        1008      3604.2041      2637.0266      2636.5631        49.4391
        1009     -4595.3418      2651.3004      2650.8412        49.3462
        1010      2510.6790      2665.6940      2665.2387        49.2629
        1011       517.6423      2680.1393      2679.6879        49.1844
        1012      -825.7308      2694.6987      2694.2511        49.1107
        1013      2361.5491      2709.3511      2708.9071        49.0464
        1014      2867.9041      2724.1180      2723.6775        48.9870
        1015       411.6315      2738.9288      2738.4917        48.9276
        1016       411.3142      2753.8706      2753.4368        48.8776
        1017      -819.3287      2768.8996      2768.4689        48.8324
        1018     -1306.9070      2784.0460      2783.6184        48.7966
        1019      -260.6879      2799.2725      2798.8478        48.7608
        1020      -413.5950      2814.5848      2814.1630        48.7298
        1021      2455.4309      2830.0154      2829.5962        48.7082
        1022     -2085.4741      2845.5407      2845.1240        48.6913
        1023       701.5195      2861.1738      2860.7598        48.6744
        1024     -1340.2880      2876.9074      2876.4957        48.6668
        1025      4850.7378      2892.7071      2892.2979        48.6593
        1026      2178.6680      2908.6341      2908.2270        48.6611
        1027     -6838.1689      2924.6936      2924.2886        48.6676
        1028       107.8915      2940.8302      2940.4274        48.6741
        1029      1974.7610      2957.0433      2956.6424        48.6899
        1030       303.9905      2973.3980      2972.9990        48.7103
        1031      3248.8320      2989.8174      2989.4202        48.7307
        1032      4215.3540      3006.3576      3005.9622        48.7558
        1033      5009.7642      3023.0267      3022.6330        48.7854
        1034      3400.7241      3039.8250      3039.4330        48.8197
        1035     -3799.2251      3056.7022      3056.3117        48.8586
        1036      1081.3220      3073.6589      3073.2699        48.9021
        1037        72.1640      3090.7382      3090.3506        48.9456
        1038      1402.9611      3107.9348      3107.5486        48.9937
        1039     -6086.7769      3125.2670      3124.8821        49.0463
        1040       757.1226      3142.6678      3142.2841        49.1035
        1041      3916.1689      3160.1979      3159.8155        49.1607
        1042      -572.2654      3177.8539      3177.4727        49.2225
        1043     -1972.2939      3195.5852      3195.2052        49.2888
        1044     -1454.6160      3213.4763      3213.0972        49.3550
        1045     -3897.4851      3231.4469      3231.0690        49.4212
        1046       731.8511      3249.5438      3249.1668        49.4966
        1047     -1144.0310      3267.7689      3267.3929        49.5719
        1048      8535.6328      3286.1015      3285.7264        49.6471
        1049      2873.6221      3304.5164      3304.1422        49.7268
        1050      1007.1990      3323.0968      3322.7236        49.8065
        1051       442.5056      3341.7576      3341.3851        49.8907
        1052      2663.1760      3360.5417      3360.1700        49.9748
        1053     -1229.9919      3379.4743      3379.1035        50.0589
        1054      4353.2002      3398.5006      3398.1307        50.1474
        1055      3262.3630      3417.6345      3417.2653        50.2359
        1056      -710.4316      3436.9018      3436.5333        50.3289
        1057     -1152.3490      3456.3155      3455.9477        50.4218
        1058      4594.5688      3475.8161      3475.4490        50.5146
        1059      2712.1050      3495.4705      3495.1041        50.6073
        1060       728.5936      3515.2430      3514.8774        50.7000
        1061     -1265.3760      3535.1001      3534.7352        50.7971
        1062      3798.7461      3555.1148      3554.7505        50.8941
        1063     -2552.4719      3575.2473      3574.8837        50.9911
        1064     -5142.7720      3595.5312      3595.1683        51.0880
        1065      2148.5659      3615.8979      3615.5355        51.1847
        1066      -185.8713      3636.4214      3636.0598        51.2814
        1067     -4948.3579      3657.0654      3656.7043        51.3826
        1068      3997.5830      3677.8670      3677.5067        51.4791
        1069      9701.1221      3698.7364      3698.3768        51.5755
        1070      2662.1179      3719.7720      3719.4130        51.6764
        1071      3488.1521      3740.9636      3740.6054        51.7727
        1072      2956.2759      3762.2322      3761.8746        51.8734
        1073     -6203.5889      3783.6912      3783.3343        51.9694
        1074     -4171.4551      3805.2323      3804.8760        52.0700
        1075      2790.6699      3826.9269      3826.5714        52.1659
        1076     -1554.1450      3848.7801      3848.4253        52.2617
        1077      4822.1812      3870.7445      3870.3904        52.3574
        1078       535.8917      3892.8700      3892.5166        52.4576
        1079      -638.9318      3915.1128      3914.7601        52.5531
        1080      7641.2832      3937.5024      3937.1505        52.6441
        1081     -2030.7629      3960.0103      3959.6591        52.7395
        1082     -3541.3191      3982.7200      3982.3695        52.8348
        1083      4656.3662      4005.5340      4005.1844        52.9255
        1084       290.8286      4028.4657      4028.1169        53.0161
        1085     -6057.6929      4051.5980      4051.2500        53.1067
        1086      2359.4209      4074.8020      4074.4547        53.1971
        1087      -175.3281      4098.1992      4097.8527        53.2875
        1088      3301.8459      4121.7543      4121.4087        53.3733
        1089      8353.4209      4145.4609      4145.1163        53.4590
        1090      3574.5061      4169.2777      4168.9339        53.5447
        1091     -3698.1079      4193.2928      4192.9499        53.6258
        1092      3569.1001      4217.4217      4217.0797        53.7068
        1093       245.9274      4241.7451      4241.4040        53.7877
        1094      9260.1904      4266.1790      4265.8389        53.8641
        1095     -1592.5060      4290.7693      4290.4302        53.9404
        1096     -3735.5071      4315.5508      4315.2126        54.0122
        1097      1292.0660      4340.4841      4340.1472        54.0839
        1098     -1497.6320      4365.5784      4365.2424        54.1556
        1099     -2591.5559      4390.8207      4390.4860        54.2227
        1100     12831.6504      4416.3779      4416.0443        54.2853
        1101      1138.7880      4441.5955      4441.2630        54.3478
        1102      5683.5068      4467.6255      4467.2941        54.4058
        1103       539.4952      4493.2289      4492.8988        54.4637
        1104      3757.2280      4519.6489      4519.3200        54.5172
        1105       803.8337      4545.6360      4545.3085        54.5661
        1106      -599.4256      4572.0313      4571.7050        54.6150
        1107     -4264.3940      4598.8204      4598.4955        54.6594
        1108      7673.7212      4625.6017      4625.2783        54.7038
        1109      8871.6357      4652.3673      4652.0451        54.7437
        1110      3661.5779      4679.5340      4679.2135        54.7791
        1111      4558.4448      4706.6791      4706.3600        54.8100
        1112      4332.5820      4734.2353      4733.9177        54.8409
        1113      1656.4930      4761.7740      4761.4579        54.8673
        1114       585.7914      4789.7089      4789.3943        54.8893
        1115     -8353.4170      4817.6351      4817.3221        54.9113
        1116       354.8491      4845.9610      4845.6496        54.9288
        1117     -1214.8770      4874.2691      4873.9594        54.9419
        1118      -473.6158      4902.5633      4902.2553        54.9505
        1119      5938.6069      4931.6748      4931.3687        54.9591
        1120      1781.9780      4960.3580      4960.0535        54.9633
        1121      3798.9880      4989.4363      4989.1335        54.9631
        1122       484.6747      5018.9153      5018.6144        54.9585
        1123      2656.6990      5048.3825      5048.0834        54.9539
        1124      4112.9961      5078.2441      5077.9469        54.9404
        1125     -6720.7192      5108.0965      5107.8012        54.9270
        1126      7018.4399      5137.9299      5137.6366        54.9092
        1127     16503.1895      5168.5782      5168.2867        54.8914
        1128     -6397.8882      5198.7960      5198.5065        54.8648
        1129      -495.7617      5229.8293      5229.5418        54.8382
        1130      2134.6699      5260.4323      5260.1468        54.8073
        1131     -2626.7219      5291.8482      5291.5648        54.7720
        1132      1165.8361      5323.2437      5322.9623        54.7324
        1133      2847.5911      5354.6273      5354.3480        54.6928
        1134     -6398.2412      5386.4081      5386.1308        54.6488
        1135      7756.0659      5418.1733      5417.8981        54.6005
        1136      5795.0488      5450.7496      5450.4768        54.5479
        1137     -4397.9268      5482.8942      5482.6234        54.4909
        1138      3826.0090      5515.4403      5515.1717        54.4340
        1139      6382.2158      5548.3826      5548.1162        54.3727
        1140      9149.6934      5581.7197      5581.4556        54.3072
        1141      3246.5520      5614.6217      5614.3597        54.2373
        1142     -1740.6520      5648.3403      5648.0805        54.1675
        1143       775.1841      5682.0366      5681.7792        54.0934
        1144       954.8525      5716.1316      5715.8764        54.0151
        1145     -7068.7490      5750.2114      5749.9584        53.9367
        1146      -324.3036      5784.6805      5784.4298        53.8498
        1147       479.8554      5819.5510      5819.3027        53.7629
        1148       -61.8085      5854.3846      5854.1387        53.6717
        1149     -4364.3740      5889.2039      5888.9602        53.5807
        1150      2719.4871      5924.8522      5924.6107        53.4810
        1151      7770.6680      5960.4582      5960.2192        53.3814
        1152     -4145.0581      5996.0499      5995.8134        53.2775
        1153    -10641.0303      6032.4507      6032.2161        53.1738
        1154      3522.9519      6068.8222      6068.5901        53.0614
        1155     12462.2100      6105.1787      6104.9490        52.9536
        1156      6326.3901      6141.9228      6141.6956        52.8371
        1157       740.8726      6179.0609      6178.8362        52.7208
        1158      1345.7860      6216.5869      6216.3643        52.6002
        1159     -5777.3721      6254.0885      6253.8683        52.4754
        1160      5408.7510      6291.9780      6291.7602        52.3507
        1161    -13884.9805      6329.8576      6329.6422        52.2218
        1162      9305.3896      6368.1020      6367.8889        52.0887
        1163    -10269.9199      6406.7554      6406.5447        51.9557
        1164      7475.7671      6445.7941      6445.5860        51.8186
        1165     -5459.8560      6484.7905      6484.5846        51.6772
        1166     -4333.4258      6524.1961      6523.9925        51.5360
        1167      6649.2651      6563.9746      6563.7735        51.3906
        1168      8410.2979      6603.7195      6603.5206        51.2453
        1169      -553.5342      6643.8630      6643.6666        51.0958
        1170     -1398.4659      6684.3907      6684.1965        50.9422
        1171      -643.7947      6725.3012      6725.1095        50.7888
        1172     -4945.0591      6766.1866      6765.9971        50.6311
        1173      1997.4900      6807.4555      6807.2684        50.4736
        1174      4926.9180      6849.1058      6848.9209        50.3120
        1175      1835.8260      6891.1361      6890.9536        50.1462
        1176     13243.3301      6933.1374      6932.9572        49.9805
        1177     21631.9199      6975.5220      6975.3442        49.8108
        1178      1272.5250      7018.2843      7018.1087        49.6368
        1179     -2651.9700      7061.0185      7060.8453        49.4631
        1180       220.1586      7104.5490      7104.3781        49.2852
        1181      2653.8230      7148.0489      7147.8803        49.1075
        1182     -9743.6152      7191.9275      7191.7610        48.9257
        1183      2072.0259      7236.1844      7236.0203        48.7440
        1184      5572.7368      7280.4114      7280.2493        48.5582
        1185     -6672.5391      7325.4314      7325.2716        48.3726
        1186      5194.8198      7370.4070      7370.2495        48.1829
        1187      9078.8027      7415.7676      7415.6122        47.9891
        1188      1537.3260      7461.5139      7461.3607        47.7954
        1189     -7481.6001      7507.6393      7507.4885        47.6020
        1190     -2726.5869      7554.1296      7553.9809        47.4045
        1191    -12016.6201      7600.5876      7600.4409        47.2028
        1192     -2691.4971      7647.4388      7647.2944        47.0057
        1193      7003.5908      7695.0682      7694.9258        46.8044
        1194     -5581.3848      7742.6653      7742.5251        46.5991
        1195     -4501.1602      7790.6454      7790.5073        46.3939
        1196     -3081.0991      7838.9960      7838.8599        46.1890
        1197     -8852.6465      7887.3080      7887.1741        45.9800
        1198      4470.2329      7936.4117      7936.2797        45.7712
        1199     -1317.0750      7985.8968      7985.7669        45.5626
        1200     -1165.4130      8035.3452      8035.2173        45.3541
